-0.0776847,0.03109342,-0.06710492,-0.08113698,-0.13869178,0.16044544,-0.009188791,-0.19516788,-0.01410441,-0.027801303,0.03506474,0.21060368,0.012041035,0.22065407,0.048682373,0.16515592,0.035490226,0.1984247,0.060315218,0.22405641,0.48978004,0.2884238,0.54831564,0.5205781,0.49717066,0.5689291,0.8302,0.730623,0.65643597,0.39832407,0.8868182,0.4189649,0.48812404,0.53980505,0.540454,1.0069212,0.57582045,0.56517786,0.29324928,0.503179,0.63601923,0.57684517,0.22794122,0.3923716,0.26794052,0.37468266,0.25613955,0.3529488,0.04731666,0.08905975,0.21677145,0.13421051,0.07047648,0.13640733,-0.009742665,0.018839741,-0.004445923,0.08787941,0.27098128,0.036457,0.08906716,0.02963189,0.12893493,0.028560858,-0.18073529,0.114829585,0.2917116,0.29041374,0.28710148,0.20536603,0.25090167,0.2755188,0.09253683,0.33439472,0.2328994,0.45304495,0.44850048,0.826651,0.7315161,0.9002428,0.93474954,1.0327404,1.1244036,0.8560331,1.0135913,0.7623144,0.818819,0.64283013,0.779909,0.77381736,0.5649149,0.21039073,0.088655114,-0.18796127,-0.07894448,-0.23998094,-0.6632901,-0.6628238,-0.9488821,-0.7964425,-0.9243846,-0.9703216,-0.9595602,-1.0697578,-0.91828823,-1.0317128,-0.8810946,-0.85415065,-0.56559294,-0.59713495,-0.75815713,-0.31632563,-0.31053755,-0.19424927,-0.27849412,-0.17272231,-0.42569494,-0.3009564,-0.2977988,-0.26726642,-0.21858087,-0.2024132,-0.4059485,-0.59133595,-0.23312044,-0.56911606,-0.2847352,-0.32268292,-0.40749294,-0.36634126,-0.4759575,-0.81759685,-1.0269862,-0.98959965,-0.92202294,-0.927788,-1.1036687,-0.87310356,-0.96136636,-1.227065,-1.0446625,-1.3210725,-1.1700531,-1.1094158,-1.111151,-1.3254309,-1.2964867,-1.4735659,-1.2631302,-1.0290929,-1.1599102,-1.0868248,-1.1474916,-1.1453118,-1.0363786,-0.85325843,-0.84139985,-0.9247395,-0.77418196,-0.7800551,-0.6366711,-0.5254262,-0.77072877,-0.4481586,-0.4455384,-0.19055428,-0.53673255,-0.17426746,-0.3932091,0.017633142,-0.27056968,-0.07188182,-0.3356045,-0.13004489,0.17953885,-0.15244342,-0.2227064,-0.046797805,-0.07195785,-0.029729625,-0.02010703,-0.117625654,0.09669707,0.07014262,0.23689185,0.16047572,0
0.13815796,0.17866623,-0.08218107,0.034506876,0.38295326,0.22346905,0.060851283,0.15783095,0.022933407,0.04327986,-0.10080575,0.16699646,-0.059701536,0.175939,0.0547332,0.04775298,0.30770567,0.45221695,0.24121296,0.3914981,0.2938591,0.34772512,0.40061074,0.29922923,0.5816355,0.7319667,0.5451179,0.59838057,0.8328377,0.5422975,0.81708235,0.81961274,0.6063376,0.75620073,0.92706096,0.7487436,0.7843948,0.58904845,0.78272396,0.70471114,0.7113535,0.54632545,0.7040084,0.30441546,0.13604824,0.23161353,0.38362786,0.44175357,0.20421724,0.017887095,0.11541177,0.2566927,0.31142163,0.04625113,-0.018093064,-0.007879281,-0.0026119438,0.018512117,0.35040766,0.061496723,0.09421186,-0.08758306,-0.06282604,-0.07737573,0.017937055,0.21046802,0.07135174,0.12286571,-0.079295546,0.23295586,0.20352817,0.37232283,0.36673224,0.31024858,0.34694552,0.45464706,0.50091845,0.83621436,0.8175584,1.0386928,1.003669,0.8262771,1.1378373,1.2288791,1.247272,0.79324126,0.7743708,0.970273,0.7559963,0.5467156,0.65473425,0.33659282,0.18305498,-0.07535834,-0.5234019,-0.53351855,-0.42713892,-0.78839695,-0.87049633,-1.0114423,-1.0767871,-1.0869615,-1.0122715,-0.8722993,-0.9160503,-0.84092754,-1.0402206,-0.94116104,-0.89167035,-0.5048373,-0.3479683,-0.35116804,-0.41409189,-0.31709015,-0.05761735,-0.3881671,-0.4113353,-0.04814754,-0.1099872,-0.20554024,-0.13871484,-0.066060334,-0.3965328,-0.15057504,-0.2767844,-0.44625717,-0.32895005,-0.541912,-0.551838,-0.3149985,-0.6324137,-0.7656034,-0.68512744,-0.9358705,-0.84097505,-0.9729631,-0.95026344,-1.1057742,-1.0519964,-1.156977,-1.3326876,-1.3555846,-1.3040385,-1.2801788,-1.2356879,-1.4726826,-1.284594,-1.1171702,-1.3692136,-1.2069092,-1.3555055,-1.1025715,-1.4496216,-0.8923619,-1.1192282,-1.1120406,-0.7287007,-0.7075453,-0.7210321,-0.52017725,-0.72194266,-0.5213286,-0.5828503,-0.5229713,-0.447254,-0.4863048,-0.36088938,-0.31077778,-0.35909277,-0.316612,-0.15844978,-0.36011252,0.08655574,-0.02129228,-0.22547685,-0.23632057,0.17539231,-0.14751583,0.010509009,-0.059098653,-0.056765437,-0.1171484,-0.16691025,0.13448821,0.030223636,-0.09914953,0
-0.25829566,0.18235727,-0.07544645,0.048487928,-0.00020142937,0.19761705,0.09999383,0.11603203,0.030414652,0.086210296,0.02360228,0.21254306,0.16465226,0.16614048,-0.1725542,0.17281349,0.17518735,0.13557766,0.41006017,0.47802186,0.40764463,0.30496293,0.4620644,0.50950634,0.5128878,0.6606175,0.61510396,0.6324295,0.63750607,0.68181616,0.6294589,0.7645425,0.4775189,0.68586993,0.49677205,0.677988,0.76341355,0.60907006,0.38938534,0.5981465,0.54687023,0.33148837,0.5478708,0.2575493,0.29188865,0.20097487,-0.0027069813,0.23635927,0.28584164,0.25877267,0.30818304,0.06339463,0.19857983,0.20248038,0.052218348,0.033850964,-0.045385946,-0.0047012125,0.05232478,0.14496517,0.011230401,-0.06200449,-0.1120186,-0.15047441,0.057569906,0.13783059,0.04035644,-0.024799887,-0.06357302,0.22412151,0.026528694,0.16848019,0.27704966,0.50574476,0.4064767,0.60194325,0.619568,0.80763644,0.5464377,0.6753142,0.86811316,1.0733299,1.0911918,0.90515673,1.1318535,0.90388316,0.9953225,0.96726286,0.8209446,0.667543,0.4628988,0.057133082,0.031162687,0.016949886,-0.4014919,-0.22702157,-0.44450766,-0.6820353,-0.6369967,-1.0574113,-0.6852249,-0.73305565,-0.86614436,-1.1980329,-0.90316486,-1.024375,-0.5170351,-0.7521683,-0.5706056,-0.5476829,-0.5071433,-0.3572393,-0.22335148,-0.33449882,-0.15361898,-0.24683766,-0.23867604,-0.07583958,-0.1173757,-0.29819745,-0.3013361,-0.44857004,-0.38187352,-0.17791934,-0.28898653,-0.38802925,-0.40605378,-0.4580251,-0.46900213,-0.4963829,-0.56715953,-0.63192797,-0.6144488,-0.7034491,-0.8076431,-0.9284254,-0.9838937,-0.9363477,-0.9853394,-0.9425527,-1.073958,-1.2835042,-1.2681222,-0.9193224,-1.2477427,-1.4744025,-1.2561333,-1.0965291,-1.2899771,-1.3196461,-1.3026631,-1.1265963,-1.1791706,-1.048116,-0.89546,-0.88736236,-0.79347956,-0.7821642,-0.7220673,-0.72171885,-0.47639945,-0.55307966,-0.4115784,-0.24904639,-0.38410926,-0.5316435,-0.13967748,-0.2688788,-0.27305427,-0.1590405,-0.15983859,-0.24808803,0.028339684,-0.3707375,0.05285616,-0.3313662,0.075870745,-0.008841509,-0.29811668,-0.1203862,-0.06686911,-0.023862038,-0.08616394,-0.117843494,-0.19958955,0.13007462,0
0.013155728,-0.07490207,-0.08305844,0.09947134,-0.2495099,0.027653653,-0.09280202,-0.084061064,0.0928282,0.0878644,-0.2753984,0.09117464,0.2642959,-0.056426074,-0.001684552,0.2942685,0.14882204,0.22834507,0.2333384,0.26944676,0.49436498,0.64477044,0.43240216,0.35884747,0.44431365,0.5591616,0.5729937,0.47219393,0.66559786,0.61196077,0.883692,0.56498253,0.54719377,0.6285487,0.8393984,0.70655197,0.49805117,0.46212336,0.61517745,0.7156167,0.3675112,0.4338305,0.48611432,0.32071644,0.6606278,0.084336,0.08914652,0.37947905,0.37652382,-0.047518384,0.2383598,0.17309368,0.12887776,0.10763236,-0.14990282,0.13011009,0.12486874,0.17200217,0.3252393,-0.01386839,0.26598087,-0.14059761,0.29157197,0.10083351,0.27700588,0.07540236,0.08442941,0.056779914,0.22765912,0.07571069,0.06016169,0.11771846,0.17282459,0.33613214,0.41078722,0.528869,0.59845346,0.44704565,0.837362,0.8782544,0.86520064,0.9879512,1.0126709,0.7367845,0.93688947,0.9915379,0.866647,0.8385116,0.69606113,0.5561029,0.38608187,0.16465443,0.22354648,0.004139293,-0.28548127,-0.36812952,-0.52464855,-0.5568233,-1.0510174,-0.8839486,-0.75962806,-1.0851874,-1.0697026,-0.85275716,-1.0344671,-0.7479701,-0.54648554,-0.7000563,-0.39334878,-0.7745823,-0.32539782,-0.48011068,-0.31227735,-0.2187264,-0.18668143,-0.39831743,-0.3296687,-0.31805858,-0.19076124,-0.43920684,-0.11650056,-0.20415421,-0.4125999,-0.44371375,-0.42159894,-0.4124624,-0.38011453,-0.60724044,-0.43671182,-0.39600262,-0.55521804,-0.7561046,-0.872772,-0.7083243,-0.557792,-0.7005864,-1.0289996,-1.0999933,-1.1463823,-1.1065423,-1.3658671,-0.94120723,-1.248201,-1.3381373,-1.2203528,-1.0442431,-1.4736528,-1.3095257,-1.1796293,-1.2979062,-1.1337005,-1.3016448,-1.2631068,-1.0557082,-1.0809778,-0.88887334,-0.93221647,-1.0162026,-0.6061856,-0.74197006,-0.87324095,-0.64944875,-0.49644753,-0.58001024,-0.38730162,-0.57205063,-0.13410392,-0.117843404,-0.37024322,-0.19532615,-0.13696721,-0.17335671,-0.1625464,-0.19695807,-0.17329186,-0.17937261,-0.19307084,0.12073966,0.120000616,0.13879931,-0.0073856395,-0.14052303,-0.0030051135,-0.055995964,0.026603945,0.12281815,0
0.10525869,0.059145257,0.05408609,0.050779726,-0.08676147,0.03623769,0.056868237,0.19962329,-0.2746144,-0.08623058,-0.09621261,-0.19247021,0.23162328,0.05205312,-0.078274295,0.3169033,0.29836324,0.37229884,0.18324536,0.33652928,0.21873106,0.53009206,0.3278423,0.5458674,0.23283494,0.7681888,0.7692784,0.81915057,0.6861312,0.7152691,0.61660194,0.7696936,0.8166991,0.6771624,0.7104352,0.40794152,0.6615551,0.6040918,0.58509445,0.49605557,0.7140096,0.45366818,0.42154223,0.56786156,0.28086728,0.2790585,0.3550169,0.23981975,0.44525704,0.22060648,0.3014276,0.21414207,0.29394877,0.20816901,0.2241096,-0.18044446,0.05305903,0.06290956,-0.0644571,0.28719068,0.17294969,0.101327084,0.14964269,0.10194266,0.10815379,0.11221077,0.100642085,0.13230783,0.19123287,0.12553248,0.2030258,0.13995923,0.23941118,0.25016034,0.4369737,0.48811316,0.61890006,0.7618432,0.6731059,1.1035124,0.914991,1.1769534,0.88636696,0.83510435,0.680209,1.0881621,0.9454499,0.51400363,0.79896516,0.5902899,0.43777934,-0.027054602,0.15595558,0.05700327,-0.23736809,-0.41372722,-0.6010033,-0.62401843,-0.803007,-0.9797751,-1.1641507,-1.123044,-0.740286,-0.9669779,-0.8653422,-0.98705584,-0.8141472,-0.7699104,-0.8298004,-0.7931161,-0.39812782,-0.29127166,-0.45257172,-0.19270593,-0.4497417,-0.38568377,-0.2890169,-0.3803685,-0.37817147,-0.49729624,-0.27169833,-0.22663233,-0.4116713,-0.07964263,-0.47338042,-0.25466946,-0.77760047,-0.76194847,-0.55514175,-0.49695155,-0.8671751,-0.5710214,-0.7401563,-0.81727475,-0.79125005,-0.7483337,-1.115431,-1.0682381,-1.1981893,-1.2131202,-1.3787384,-1.2107011,-1.3444126,-1.3173896,-1.2294493,-1.4729657,-1.266794,-1.2980918,-1.2430309,-1.2078758,-1.2681645,-1.1182662,-1.135179,-1.1834577,-0.9289113,-0.9923366,-0.84902483,-0.84216195,-0.9786705,-0.97340477,-0.53216463,-0.6564789,-0.58905137,-0.39546943,-0.41287893,-0.2089983,-0.26852593,-0.3573452,-0.32388294,-0.4253447,-0.08388961,-0.011518717,-0.10064813,-0.18958597,-0.031204442,-0.19813652,-0.12355356,0.022719925,-0.07984505,-0.10389336,0.030319963,0.0771456,-0.04492803,0.19870079,0.024883669,0.117153235,0
0.20554604,0.0012069258,-0.10887455,-0.09420108,0.043231674,-0.070899695,-0.0018988423,-0.047382105,-0.0076372316,-0.056606837,0.28161374,-0.047513098,0.043774504,0.3925441,-0.046214722,0.20434226,0.21656787,0.3503616,0.4508637,0.44639492,0.4811885,0.55162007,0.47799382,0.4605216,0.76902694,0.4131726,0.4650281,0.69476426,0.7860171,0.74977636,0.82043934,0.5915444,0.8076185,0.3790835,0.6114425,0.83720565,0.6565724,0.7658741,0.47649866,0.6034687,0.18579204,0.60351145,0.50886905,0.039115388,0.19554466,0.40557498,0.13265087,0.5798892,0.19212656,0.18870828,-0.06852593,0.11590729,0.043122903,0.026864816,-0.12251984,-0.0668195,0.20274863,0.06594806,0.029178608,0.1510145,0.2753002,0.008908921,0.1099272,-0.0073734988,-0.16316883,-0.12579373,-0.26670554,-0.33076295,0.07970323,0.29255423,0.38033473,0.49593946,0.42685524,0.644697,0.48801795,0.75269246,0.57212675,0.80966675,0.49749166,0.9402034,0.9636657,1.1832229,1.072624,1.0182385,1.1439155,1.0823294,0.8061493,0.92430425,0.8175398,0.7980191,0.5625082,0.48374975,0.47705528,-0.038150445,-0.3337932,-0.5522834,-0.52877116,-0.6651176,-0.79484534,-1.040331,-0.82365245,-1.0278041,-1.0627124,-0.9235843,-0.9393844,-1.1649467,-0.9246683,-0.56316507,-0.6457927,-0.6627631,-0.577289,-0.44935748,-0.43838665,-0.57574356,0.041935563,-0.31185988,-0.19575232,-0.24174543,-0.32459942,0.025245104,-0.20474806,-0.42064497,-0.27531585,-0.21775956,-0.27222672,-0.5632322,-0.48624924,-0.49746147,-0.5383969,-0.5852449,-0.8654458,-0.79001135,-0.95919675,-0.9543369,-1.0148363,-0.99108064,-1.0249193,-0.8807719,-1.1945617,-1.3093492,-1.1553305,-1.1421187,-1.4672433,-1.4544498,-1.2906226,-1.2726452,-1.4716675,-1.1695777,-1.1940724,-1.0812405,-1.3871362,-0.92681384,-1.2266424,-1.1205008,-1.1386343,-1.0531244,-1.1193509,-1.033606,-0.9423552,-0.5344546,-1.1463721,-0.6310898,-0.80386674,-0.4569963,-0.43862596,-0.36092928,-0.3296033,-0.28710696,-0.26770663,-0.46298227,-0.5674967,-0.20514737,-0.34156877,-0.11262469,-0.18582408,-0.1929345,-0.23908868,-0.0423123,-0.008719404,0.19232117,-0.06322003,0.037002172,0.03436021,-0.13749342,0.07623824,-0.057398856,0
-0.08833461,-0.037644245,0.1410712,-0.24304765,0.07286,-0.07801359,-0.14249322,-0.04127161,0.09265771,0.05848335,0.24966006,0.051282518,0.022913944,0.12114207,-0.059175435,0.2896932,0.10188147,0.34511974,0.25279436,0.40705493,0.38865313,0.2695079,0.48114532,0.23518746,0.64506984,0.44768155,0.5213578,0.48993018,0.6809916,0.2787096,0.6989681,0.5590572,0.68904626,0.98863983,0.6750837,0.65778273,0.77411413,0.61979836,0.49455455,0.72221947,0.3911572,0.5585534,0.654539,0.40068913,0.4516136,0.425337,0.026174469,0.25355226,0.047782913,0.3119244,0.038487006,0.10741004,-0.027729241,0.16376483,-0.09020184,0.08812516,-0.14983107,-0.07289195,-0.054946993,-0.07866693,0.15042886,0.10356107,0.3186973,0.041370925,0.076983504,0.019626949,0.36841,-0.08678908,0.32624084,0.25040075,0.13385336,0.23484227,0.43241426,0.3975622,0.53049064,0.59854066,0.39439854,0.73551136,0.81435186,0.6567982,0.75806534,0.65344304,1.0132028,0.60743266,1.0501249,0.9945974,0.788683,0.752235,0.35436428,0.5449885,0.5293629,0.08801242,-0.08695144,-0.02449916,-0.33001065,-0.4386462,-0.5148548,-0.7424168,-0.70354515,-1.0394889,-1.0901294,-0.8570915,-1.2243474,-0.9349864,-0.95900184,-0.987731,-1.07097,-0.66723365,-0.73241526,-0.61108065,-0.8004032,-0.39781168,-0.27707505,-0.13788815,-0.45114133,-0.3492664,-0.2007921,-0.14041494,-0.37743717,-0.46975127,-0.23693022,-0.23108247,-0.103927724,-0.2215427,-0.35220027,-0.44051778,-0.43478084,-0.61739874,-0.4531463,-0.44006878,-0.64641374,-0.7821958,-0.37708393,-0.54624707,-0.87702894,-0.86404717,-1.1517158,-1.1161896,-1.1909701,-0.95952904,-1.2397313,-1.0318928,-1.4741858,-1.3793284,-1.2507213,-1.0883582,-1.1780461,-1.2083205,-1.1827936,-1.0832206,-1.2372613,-1.1342843,-1.216246,-1.2365265,-1.1897663,-0.9307606,-1.0384729,-0.84912646,-0.8411085,-0.9140827,-0.7238035,-0.49299237,-0.6446095,-0.35772437,-0.5051681,-0.5937535,-0.38115516,-0.23811977,-0.023143083,-0.26435307,-0.37838975,-0.13967595,-0.12903191,-0.26668504,-0.22898844,-0.00051916717,0.07830454,-0.032869264,0.13090687,-0.22248456,0.029692423,0.07359687,0.18253516,-0.09324719,0.116214834,-0.16312195,0
0.1454706,-0.0389136,-0.23488182,-0.07615115,0.13295361,-0.23687224,0.117668614,-0.30549863,0.027261099,0.23688585,-0.058955126,0.18062714,-0.10949238,0.09541394,0.3849947,0.062763266,0.19426732,0.094343364,0.44058955,0.396305,0.3053331,0.49074966,0.5081288,0.49883112,0.5164638,0.6351174,0.665537,0.48220733,0.58021724,0.7324411,0.67517465,0.7657645,0.7776792,0.7009563,0.5962216,0.37395632,0.63128704,0.4432405,0.5128132,0.37013054,0.46829972,0.70834845,0.38192686,0.2602754,0.33028665,0.29222864,0.25284424,0.59993124,0.23934884,0.014744428,0.3363613,0.21832512,-0.048193615,0.108800806,-0.08933461,0.22159353,0.103636414,-0.053939715,0.14286247,-0.13956752,0.19474268,-0.07234623,0.21412833,0.13864377,0.0107441135,0.049418855,0.057775296,-0.01131782,0.13636102,0.16977212,0.3078138,0.20446648,0.4593796,0.58756804,0.6968423,0.6065241,0.69837093,0.5016598,0.7366505,0.8833445,1.1215564,1.1413404,0.70923036,0.62952065,0.8935276,0.7990561,1.1728027,0.70572853,0.46396172,0.7427158,0.3770125,0.2810812,0.13152902,-0.051665146,-0.08231209,-0.45626825,-0.61392355,-0.3827798,-0.7590088,-1.0957694,-0.79708934,-0.73028153,-0.98237425,-0.85881186,-0.93894285,-1.1623245,-1.1323445,-0.5778708,-0.90581715,-0.36582592,-0.4364632,-0.7636854,-0.4069681,-0.23210682,-0.30616754,-0.31925416,-0.14243606,-0.09435096,-0.08765711,-0.31903994,-0.28790995,-0.15157558,-0.32326764,-0.27024418,-0.21915832,-0.1817319,-0.30482066,-0.7076448,-0.27108634,-0.5484679,-0.83143103,-0.44542783,-0.54281914,-0.6945063,-0.8287668,-0.6263317,-0.9784903,-1.3156526,-1.2123568,-1.0744562,-1.0868556,-0.9032552,-1.3223151,-1.1417986,-1.4735607,-1.3413204,-1.3720907,-1.0361791,-1.4091902,-1.1594226,-1.0286672,-0.9505643,-1.0305685,-0.86884266,-0.965299,-1.0076191,-0.9514044,-0.6047258,-0.6597356,-0.5783277,-0.5270678,-0.6382013,-0.7168985,-0.5640214,-0.19069907,-0.49349025,-0.4166998,-0.4497581,-0.267995,-0.16409016,-0.27889052,0.041608356,0.04463124,-0.13300818,-0.058158748,-0.29770115,-0.11357,0.10354667,-0.2076837,0.3139351,0.109296225,-0.32993802,0.08207996,0.09321241,-0.22818638,0.01820146,0
-0.1289403,-0.12330942,0.056788795,0.42197096,0.055902887,-0.11339241,-0.06593206,-0.31778932,0.023282947,0.43809545,0.10993563,-0.050554655,0.28070378,0.17125404,-0.008680754,-0.030951368,0.118022576,0.15388176,0.36865902,0.27074453,0.6050435,0.7116078,0.6417764,0.5379542,0.5199946,0.41227922,0.76673716,0.7137261,0.53917444,0.5291295,0.7658368,0.8134931,0.8647232,0.74414545,0.8876186,0.8082481,0.65130824,0.56043786,0.4146226,0.5310216,0.3935872,0.27250856,0.34246454,0.50579125,0.15767868,0.5664506,0.6914234,0.15700185,0.113069385,0.07195433,0.2101181,0.1627234,-0.089440905,0.1801818,0.07520474,0.027220847,0.055103377,0.26938662,0.25576374,-0.051958025,-0.21287932,0.14507209,0.12410615,0.14325118,0.006580401,0.051357243,-0.13415658,0.10996969,0.14988896,0.16477646,0.30552906,0.3437277,0.51682943,0.42341948,0.626318,0.447792,0.69520646,0.6223337,0.62278897,0.71601945,0.7627074,0.9129549,0.75609505,1.0022105,0.87198997,0.8159749,0.8871461,0.62062263,0.77399164,0.57091564,0.5277035,0.39782444,-0.056519896,-0.09043031,-0.51194096,-0.109670326,-0.55348235,-0.6631383,-1.1019467,-0.9487867,-1.0045109,-0.936551,-1.0642269,-1.0661851,-0.9780587,-1.1146169,-0.96259356,-0.72756433,-0.725143,-0.5366966,-0.452177,-0.460151,-0.3327833,-0.1382313,-0.24995841,-0.47478297,-0.16377424,-0.21531603,-0.1257241,-0.009585107,-0.18866676,-0.43205193,-0.34313175,-0.27487168,-0.38082734,-0.1667608,-0.36336264,-0.43203053,-0.52665776,-0.6128867,-0.6424696,-0.5517928,-0.7172686,-0.6835922,-0.9273113,-0.97612804,-0.949032,-1.1170235,-1.15779,-1.092952,-1.0394757,-1.4254893,-1.4599141,-1.2349604,-1.3626889,-1.2675762,-1.3748634,-1.4249213,-0.920703,-1.3226929,-1.1329435,-1.4722464,-1.3757572,-1.0297801,-1.1104584,-1.0267978,-1.0302616,-0.7636278,-0.63615465,-0.6346536,-0.7589808,-0.5693432,-0.5568781,-0.5978256,-0.289115,-0.52934974,-0.9237229,-0.18803576,-0.5455739,-0.047501832,0.175586,-0.18240005,-0.22206391,-0.2636083,0.13886875,-0.3577551,0.10070354,0.07038978,-0.2458466,-0.007222097,0.064264186,-0.16973005,-0.0319686,-0.040343042,0.118530594,0.17279947,0
-0.014487121,-0.11852778,0.033609487,0.19619337,0.044222534,-0.10337168,0.014481626,0.020789579,0.17081425,-0.011477179,0.07099383,0.101000436,0.2522492,0.18776058,0.20082557,0.08865648,0.03456952,0.21695247,0.37849605,0.31664237,0.21919486,0.24046274,0.48112535,0.048657667,0.5060941,0.47477096,0.45148987,0.72039604,0.59827226,0.8401288,0.55643994,0.3747726,0.5040743,0.65452915,0.6668103,0.6680261,0.6103164,0.70613813,0.4550756,0.48515898,0.43606287,0.28921095,0.15382007,0.32238004,0.4073478,0.24834462,0.41467994,0.2702965,0.14144535,-0.03807227,0.07061267,0.19038425,0.09963095,-0.14386374,-0.34610948,0.18604793,0.111330055,0.054016434,-0.039645925,0.017167533,0.093673475,-0.16327186,0.033979237,0.013838582,-0.022241067,0.09167087,0.061290905,0.050385457,0.051009215,0.15840846,-0.10144802,0.214847,0.37174538,0.28723264,0.2419185,0.56130034,0.47002256,0.48910522,0.6857766,0.94080865,0.9790623,0.7439452,0.77262974,0.87561685,0.9698199,0.9277153,0.94852555,0.7068229,0.73475397,0.5918586,0.40795162,0.236846,-0.048356567,-0.09752473,-0.22693233,-0.36458465,-0.56784904,-0.5661958,-0.5692239,-0.83358073,-0.7263701,-0.82276285,-0.99549776,-0.92078257,-1.0599641,-0.8674176,-0.622476,-0.774214,-0.51564837,-0.57722133,-0.5309564,-0.4355903,-0.322424,-0.14612123,-0.3396074,-0.1061718,-0.27093256,-0.54487693,-0.00026179224,-0.2409781,-0.12610528,-0.10993159,-0.2756503,-0.19773772,-0.37179744,-0.45311186,-0.52060103,-0.6036179,-0.36967173,-0.57325286,-0.5658088,-0.6738946,-0.7386894,-0.66373444,-0.7780573,-0.8405298,-0.9650141,-0.9132293,-0.8529949,-0.9791502,-1.1130878,-1.1605434,-0.9786393,-1.1758262,-1.1810514,-1.0344511,-1.0802581,-1.2430754,-0.9854273,-1.1790087,-1.4759003,-1.0611986,-0.98175526,-0.9017865,-0.95629895,-0.7628168,-0.9398964,-0.9365663,-0.780801,-0.7400757,-0.43721586,-0.6020429,-0.2976935,-0.44917005,-0.36128345,-0.56563264,-0.22584152,-0.27109426,-0.22165866,-0.3175977,0.028626097,-0.23347677,-0.053400893,-0.073654845,-0.04981635,-0.063434415,-0.168073,0.19346122,-0.04290632,-0.20897049,-0.16150142,-0.10909295,-0.16550592,0.15233405,-0.107662804,0.14083156,0
-0.09174003,-0.16003779,0.116505414,-0.19303566,0.091075234,0.18714163,-0.011904864,0.03748965,-0.1505768,-0.023871845,-0.20745388,-0.014197797,-0.047397915,0.32710883,0.06805133,0.1946052,0.11618177,0.09474077,0.25703973,0.34337348,0.40535057,0.43992326,0.37657043,0.52524304,0.2710652,0.820095,0.6358419,0.83389455,0.7319337,0.49944463,0.93408525,0.5499287,0.8253798,0.6621619,0.7114223,0.8320277,0.7636442,0.64480937,0.74106294,0.82029915,0.4868942,0.58244383,0.48093796,0.30317837,0.21522595,0.40919045,0.34598958,0.13385963,0.52451473,0.50234985,-0.03092426,0.28340217,0.12223591,0.077968776,0.22829092,0.21283653,0.19689947,-0.09284113,0.31764454,-0.20229886,0.20027305,0.16449654,0.09763032,0.23746787,0.16687708,0.13079295,0.23655161,0.019319238,0.1989154,0.3235007,0.1730817,0.29767343,0.18768631,0.38987064,0.33367634,0.5759644,0.40966794,0.6092811,0.6825735,0.78804445,0.82800543,0.67127043,0.96832705,1.0649159,1.0683445,1.1032842,0.9568052,0.8471103,0.73237425,0.6236599,0.4906765,0.3830009,0.09433863,-0.3880211,-0.32324812,-0.3492696,-0.8457503,-0.7520259,-0.5478688,-0.88075554,-0.932217,-1.2504815,-0.8957248,-1.1275073,-0.71692944,-0.7488997,-1.0544808,-0.76077336,-0.9625767,-0.8824275,-0.68571323,-0.5608985,-0.4984267,-0.37424588,-0.32582203,-0.38580915,-0.13648432,-0.3776715,0.0465774,0.03927429,-0.5162431,-0.21763337,-0.32652172,-0.4839433,-0.36022803,-0.34945968,-0.5959517,-0.5837037,-0.7410159,-0.8482985,-0.7937092,-0.89703834,-0.61177915,-0.952614,-1.0372152,-0.77737963,-1.3611393,-0.97841763,-1.1374869,-1.0638752,-1.3996645,-1.2756916,-1.3083643,-1.3055805,-1.2014439,-1.2628338,-1.3918215,-1.1883894,-1.3404833,-1.3187524,-1.1541939,-1.4715934,-1.3566779,-1.3021792,-1.1819714,-1.1081016,-1.207455,-0.83277166,-0.5537077,-0.91046214,-0.7248044,-0.8147763,-0.317325,-0.47669333,-0.57916915,-0.3853554,-0.3312785,-0.29316857,-0.50905704,-0.27113792,-0.1056847,-0.2714057,0.009070971,-0.36015615,-0.0033207044,-0.40398425,-0.20507059,-0.13746439,-0.080714166,-0.18082651,-0.14504646,-0.11505076,0.103818305,-0.07025767,0.037487708,0.17845596,0
-0.13069877,0.0926335,-0.15725055,0.19980736,-0.11329112,-0.19685614,-0.012436516,-0.051135734,-0.07406011,-0.12291107,0.22438395,-0.066104546,0.22714938,0.13291946,0.4550159,0.258708,0.35819277,0.38933045,0.46194944,0.5054747,0.3858148,0.67372936,0.47157714,0.2989387,0.46412,0.64406943,0.360334,0.68534017,0.37523007,0.59063095,0.6297006,0.6212657,0.7091575,0.7906563,0.51764786,0.8107132,0.8864792,0.7369133,0.47575623,0.7615311,0.48930705,0.8600428,0.4958403,0.33268574,0.32087,0.26554975,0.23807254,0.0055609723,0.42038164,0.37542495,0.012728384,0.17656086,-0.047172192,0.21773818,0.026455196,0.38470566,-0.018091269,0.08028199,0.1966757,0.08656008,0.043738086,-0.25136045,0.18179613,0.15064402,0.23157501,-0.12262842,-0.02865015,-0.13615021,0.21893036,-0.02768712,0.13269195,0.23388368,0.37731472,0.49673957,0.2653428,0.6313317,0.6756547,0.67666936,0.9260704,0.9459653,0.95321184,0.7921814,1.1774436,1.2205179,0.9344733,1.0010206,0.9927773,0.9048086,0.6718941,0.47687304,0.48614097,0.4533162,0.51931405,-0.19127981,-0.11561483,-0.5379017,-0.6298081,-0.95717734,-0.8570044,-0.9961452,-1.1013825,-1.1798792,-1.0781825,-1.3219502,-0.99838454,-1.1373267,-0.7644609,-0.8972391,-0.53797907,-0.598896,-0.47127122,-0.6616438,-0.6143909,-0.25462803,-0.36960858,-0.27353397,-0.39249995,-0.60430706,-0.10138122,-0.2062134,-0.6067185,-0.41957304,-0.1443388,-0.19713494,-0.28335035,-0.5324503,-0.5075452,-0.7385823,-0.5465389,-0.5013649,-0.64409685,-0.8007614,-0.7699563,-0.8687398,-1.1356076,-1.0032727,-1.2587019,-1.266416,-1.2429637,-1.3143978,-1.4068096,-1.4438771,-1.3366225,-1.2978737,-1.3519502,-1.3423883,-1.1908144,-1.2274517,-1.2137222,-1.1108779,-1.4697659,-1.4234068,-1.4571062,-1.3097824,-1.1693442,-0.99416494,-1.0854237,-0.9511075,-0.98677015,-0.79819125,-0.9339056,-0.8708742,-0.93385834,-0.39294237,-0.41434848,-0.6700044,-0.4845239,-0.29719982,0.0050391234,-0.13754272,-0.38153026,-0.2707554,-0.3749899,0.45456398,-0.17746419,0.03523955,0.028260414,-0.0141819855,0.24387093,-0.17128487,0.06610156,-0.024135105,0.3161179,-0.062984385,-0.17691469,0.04564764,0
-0.004070146,0.002625732,0.01653604,-0.014210383,-0.1703556,-0.15365246,0.04455552,-0.28493953,0.009146775,0.035459667,0.0031343254,0.11843954,0.016292175,0.04769391,0.30590782,0.035478234,0.24180022,0.11135186,0.11258911,0.30948812,0.37513047,0.23935701,0.7290354,0.44644672,0.54085064,0.45878124,0.5774255,0.49209407,0.55703247,0.6944057,0.55123216,0.71592957,0.7398014,0.58380014,0.5497671,0.5810817,0.8463609,0.6085232,0.7567402,0.68736917,0.66068524,0.55753666,0.42840675,0.26770216,0.26840457,0.1661497,0.009892926,0.50622046,0.34920648,0.17261419,-0.033060674,0.18380854,0.26795056,-0.044276297,-0.19957797,0.20924075,0.14106439,0.053688522,0.1109571,-0.0027481874,0.1283831,-0.0025671686,-0.021350846,0.03887345,-0.21821423,-0.049470194,0.1235251,0.25072584,0.25071806,0.11456659,0.16292603,0.1925314,0.34455872,0.6235566,0.564756,0.5408302,0.84455156,0.7778204,0.97853684,0.76639724,0.91686076,0.8826896,1.0519042,1.1546092,0.90228766,0.91607237,1.170302,0.80659956,0.6346923,0.47261763,0.5225956,0.18662904,-0.07768176,0.029282646,-0.27442944,-0.39482614,-0.68496984,-0.6513981,-0.96468794,-1.062474,-1.0010594,-1.1750457,-0.95257205,-1.103942,-0.97926444,-0.81156766,-0.7782214,-0.8000398,-0.9600311,-0.6833485,-0.5272721,-0.6311745,-0.36775345,-0.6463072,-0.47280207,-0.27264494,-0.6089912,-0.22365248,-0.24806851,-0.16070597,-0.41110566,-0.38573977,-0.49582812,-0.5560058,-0.3964958,-0.5389727,-0.3309811,-0.5577306,-0.7286042,-0.66404575,-0.7522819,-0.62101334,-0.8256071,-0.71219033,-0.67768496,-1.202641,-0.933401,-1.0047355,-1.2325178,-1.0156186,-1.0369295,-1.1288218,-1.080991,-1.2209266,-1.3225114,-1.3646398,-1.4305092,-1.4729136,-1.113089,-1.3701359,-1.1243902,-1.2204821,-1.2851372,-1.2836324,-1.0461212,-1.1865907,-0.67585194,-0.8222257,-0.71201736,-0.87803525,-0.848296,-0.53073615,-0.33074826,-0.55618703,-0.3485662,-0.51611,-0.55182725,-0.41389096,-0.18697917,-0.21358022,-0.29263762,0.010191175,-0.095315754,0.030866457,-0.11363238,0.01907149,-0.002935547,-0.08956239,-0.24843302,-0.06023131,-0.043284554,0.065038785,-0.013455955,-0.029515244,0.008796416,0.017721994,0
0.044813797,-0.024404844,-0.08578459,0.04118818,0.15604192,-0.07668753,-0.1961169,0.12943284,0.05357727,-0.016647946,0.0018447085,0.13566442,0.036660466,0.24098839,-0.062209338,0.21394078,0.3637507,0.14806925,0.34695053,0.20443787,0.42930776,0.19211334,0.5033003,0.52361447,0.47269195,0.8491321,0.4339533,0.57913655,0.55798095,0.60790277,0.74871343,0.54156524,0.8404265,0.6528086,0.6944986,0.63983124,0.6995259,0.62887985,0.50159734,0.5504396,0.36041912,0.6215678,0.47531578,0.54997444,0.18389419,0.010276144,0.3831105,0.2548982,0.20633249,0.0821582,0.17130736,0.03469196,0.011550971,-0.042780727,0.32601103,0.16055349,-0.06508831,0.030209415,-0.049137887,0.00012220275,-0.026517825,-0.05046827,0.065350585,0.3579218,-0.007229932,0.112112515,0.14691204,0.08098799,0.030575586,-0.07871017,0.27659056,0.28649214,0.47802737,0.29673734,0.43925673,0.44927663,0.5262841,0.564304,0.7971844,0.65042627,0.74838203,0.7633116,1.0641496,1.1536291,0.97293067,1.0787559,0.85318226,0.71301675,0.6282277,0.5021512,0.2761982,0.15882732,0.40418056,-0.058805007,-0.3288181,-0.33148763,-0.5137771,-0.53887826,-0.71512955,-1.0370414,-1.1372471,-1.049259,-1.1026483,-0.9301864,-0.8176176,-0.8574826,-0.7686823,-0.3829791,-0.46142212,-0.55060387,-0.59773636,-0.5366754,-0.5229944,-0.1163772,-0.362328,-0.3696893,-0.26146424,-0.26282376,-0.13713476,0.051772077,-0.38002712,-0.48201996,-0.36366263,-0.50394994,-0.24271907,-0.4243,-0.6671289,-0.39145118,-0.6806272,-0.41763604,-0.6179877,-0.60191864,-0.6462499,-1.0077833,-0.6601534,-0.86666983,-0.73019177,-0.79475063,-1.069526,-1.2097563,-1.1129855,-1.2393942,-1.1610981,-1.3232591,-1.1624321,-1.421624,-1.249209,-0.9659493,-1.1207916,-1.4744385,-1.1260513,-1.0478163,-1.0810889,-0.9926234,-1.1149851,-0.868336,-0.8209861,-0.9667843,-0.7806397,-0.84663934,-0.49171305,-0.6096934,-0.3782883,-0.70422035,-0.7218799,-0.26556566,-0.32674918,-0.23203659,-0.2972812,-0.35193047,-0.15957357,-0.061860655,-0.11994558,0.021888189,-0.030821066,-0.17281906,0.12756017,0.13602936,-0.03654927,0.21724917,-0.0051985746,0.06576778,0.04060168,-0.20377345,-0.13591616,0.106971,0
0.071250886,-0.007646552,-0.15279701,0.11429136,0.24930932,0.020849306,0.029640034,0.027445255,-0.056276683,0.28693822,-0.02802031,0.10591501,0.029574605,0.34787893,-0.11562153,-0.12003957,0.4945416,0.48777756,0.3952542,0.41538605,0.49481407,0.2947839,0.6254402,0.26182562,0.5118566,0.56006026,0.509169,0.91455084,0.77332276,0.7941763,0.6727491,0.8524361,0.6854903,0.58830315,0.4812596,0.8940486,0.5925927,1.08484,0.85565597,0.5682519,0.5119618,0.27785584,0.46513018,0.39599508,0.19351871,0.49043435,0.33704734,0.3187221,0.062674634,0.31077904,0.22502661,0.04151855,-0.038911276,0.15856351,0.14905895,0.45312002,0.055827625,-0.058716703,-0.50215966,-0.14758454,0.13050668,0.0019495251,-0.086516544,0.32483378,0.09625824,0.17739926,0.26921004,0.279585,0.21216908,0.03894603,0.09167141,0.3750228,0.58882064,0.28105503,0.47284922,0.8543742,0.5507002,0.6491578,0.7417714,0.9239315,0.98437357,1.0449926,0.89872885,1.2114316,1.0965447,1.1669056,1.1640434,1.0460371,0.5735004,0.5929783,0.47706988,0.33287793,0.3870328,0.24957588,-0.17578503,-0.47473767,-0.34579536,-0.8621792,-0.84625524,-1.0381241,-1.1908461,-1.2793086,-0.94350946,-1.1512698,-0.8522385,-0.92119294,-1.1236678,-0.8494598,-0.8983431,-0.53985286,-0.6962994,-0.5169838,-0.5315152,-0.7091417,-0.28179044,-0.41901848,-0.30857944,-0.2393223,-0.14281522,-0.41120768,-0.4262609,-0.6011191,-0.47838223,-0.3670216,-0.3289533,-0.33381242,-0.4776987,-0.2821272,-0.5541875,-0.8611013,-0.5209022,-0.80486333,-1.0452398,-0.935643,-1.2227001,-0.99189675,-1.2092792,-1.0028453,-1.1909592,-1.1529614,-1.2455993,-1.3913851,-0.8981088,-1.3053609,-1.2393098,-1.3546062,-1.4396015,-1.4709727,-1.2022738,-1.4034258,-1.3786522,-1.1530269,-1.3397018,-1.3396015,-1.0033336,-0.77968097,-0.64810324,-0.98381203,-1.065717,-0.9264791,-0.6949706,-0.59965247,-0.19506161,-0.42562485,-0.3200387,-0.40432295,-0.24099015,-0.39380652,-0.2628907,-0.23582439,-0.15821344,-0.2426807,-0.061156455,-0.09431489,-0.24666807,-0.011335197,-0.25749704,-0.036353838,0.12774359,0.010943218,0.029953022,0.14196195,0.044918682,-0.11927965,-0.032054253,0.08873134,0
-0.1250403,-0.21805812,-0.0022155105,0.13619396,0.030566009,-0.10115673,0.03378741,-0.06305363,0.02842693,-0.024958588,-0.1468528,0.048294064,-0.039214678,0.18984342,0.026109446,0.16987018,0.3381081,0.306342,0.35782766,0.3753735,0.46211883,0.36425388,0.61451274,0.5534228,0.63299185,0.25890934,0.6156553,0.7576737,0.70595294,0.57404065,0.6659617,0.8540516,0.64334667,0.62663686,0.64672065,0.6599413,0.76514316,1.0194534,0.723561,0.7640821,0.58421403,0.4478135,0.5492824,0.27128255,0.254704,0.27808312,0.07022794,0.3193962,0.3390436,0.12023785,0.2617294,0.049799554,0.07271486,-0.08888431,0.20122407,0.3844431,0.07865479,-0.15280679,0.11436711,0.05839816,0.04642934,0.20576416,-0.12622568,0.02481958,0.15597092,0.0010041272,0.21962853,-0.13205217,-0.043257713,0.18526801,0.58034664,0.088172264,0.2897746,0.20221987,0.41454944,0.42742482,0.64772755,0.6054373,0.68736476,0.6654217,0.8158846,0.9790386,1.0486232,1.036883,1.3681867,1.1053104,0.9610636,0.7175354,1.0820279,0.6927337,0.5904614,0.27159104,0.3347676,0.0493886,-0.25226304,-0.5887239,-0.70391464,-0.7687629,-1.0246872,-1.2049572,-1.1882448,-1.2497631,-1.0431169,-1.113555,-0.9356804,-0.8715765,-0.6816719,-0.48591894,-0.80248314,-0.53657573,-0.47221032,-0.26002192,-0.6071052,-0.7110915,-0.5145601,-0.20822325,-0.54183125,-0.43187714,-0.16265653,-0.21199636,-0.14035122,-0.28368646,-0.2765732,-0.21832883,-0.37050468,-0.46129355,-0.5218183,-0.7642283,-0.5829047,-0.7159963,-0.6464706,-0.71257186,-0.87411076,-0.8600712,-1.0068355,-0.8447696,-1.0187203,-1.0965505,-0.817346,-1.0114623,-1.390555,-1.3784761,-1.2561986,-1.4728343,-1.2717142,-1.326598,-1.1639822,-1.2710413,-1.0745049,-1.2386397,-1.226324,-1.0505126,-1.430814,-1.2329798,-0.8713355,-0.849623,-1.0503616,-1.126653,-0.77955884,-0.67829657,-0.62980705,-0.64535064,-0.61867166,-0.7986585,-0.5344872,-0.4175504,-0.4915196,-0.35945436,-0.45254272,-0.2535966,-0.026928162,-0.3447082,0.21816152,-0.06360852,-0.082227595,0.2294886,-0.30469173,0.05795537,-0.22218598,-0.02563211,-0.023610277,0.0077498355,-0.14009245,0.16121191,0.13246498,0.036660843,0
0.15427642,-0.0796712,-0.05707149,-0.08975286,0.086458735,0.12640813,0.27523136,-0.042205293,0.021440225,-0.12107615,0.016643275,0.059780024,0.025626834,0.12946968,0.033165798,0.03460929,-0.015243808,0.062057048,0.24954703,0.21267773,0.28690428,0.25012514,0.36771798,0.5274438,0.473945,0.40361255,0.6503965,0.5483161,0.6063603,0.57180566,0.50509405,0.38713205,0.6144054,0.80286515,0.48439687,0.7701224,0.8308957,0.43390715,0.43483654,0.52787703,0.42228895,0.3789119,0.27877194,0.38584518,0.41132495,0.38369846,0.052181557,0.39779508,0.3814333,0.29608414,0.12789823,0.076200694,-0.040441826,0.0011470864,0.105814464,0.04609468,0.087895505,0.027261168,0.31563142,-0.08468153,0.056566045,-0.2743045,0.07687141,-0.049090926,-0.027636267,0.3884923,0.17840986,-0.0047299555,0.17886528,0.39181468,0.3350457,0.15496652,0.31227568,0.6359786,0.45203355,0.43430027,0.6140498,0.5124101,0.7953285,0.92394054,0.7255024,0.97848797,0.96930027,0.9126743,0.79746115,0.91727287,0.85903716,0.88563186,0.75537777,0.45211112,0.61953586,0.11091972,0.20226513,-0.0619625,-0.08508831,-0.5698199,-0.66771805,-0.642895,-0.6729414,-1.0645066,-1.1206187,-1.0123559,-0.8861399,-0.7897889,-1.0458815,-0.7719523,-0.5616655,-0.75883347,-0.5630506,-0.7903978,-0.4774827,-0.546304,-0.5994896,-0.3742049,-0.33790937,-0.46207267,-0.24992493,-0.34052885,-0.30917132,-0.15842904,-0.3056998,-0.20775722,-0.23415887,-0.3373225,-0.2965032,-0.550856,-0.5917739,-0.3154653,-0.56015646,-0.60039264,-0.5140264,-0.52087176,-0.5806328,-0.7375225,-0.9008895,-0.83649236,-0.99846274,-1.0165613,-0.82306457,-1.1457027,-1.3145405,-1.0246358,-1.4753772,-1.2143326,-1.225129,-1.2938677,-1.2208319,-1.3539842,-1.1965501,-1.0012609,-1.1898102,-1.1872393,-1.2127922,-0.9478604,-1.047348,-0.91362184,-0.6951355,-0.8014119,-0.6202913,-0.6282908,-0.64919215,-0.771876,-0.51849097,-0.3463484,-0.29141074,-0.12545991,-0.37739548,-0.183719,-0.33380675,-0.4894163,-0.46943304,-0.036421154,0.023677174,-0.027288422,0.029053928,-0.016542515,-0.16253781,0.08688966,0.21747956,-0.02812021,0.028184697,0.1745824,0.09040356,-0.013429034,0.042922694,-0.15884565,0
-0.20335437,0.008107679,-0.13860963,-0.11841777,0.017695954,-0.0049358746,0.015621424,0.0032928658,-0.09314749,0.030356959,0.013314821,0.1281866,-0.21769756,-0.18478319,0.21267954,0.18897372,0.23799156,0.27263954,0.1759832,0.33819017,0.3705213,0.48801106,0.45799845,0.40503126,0.5035117,0.73810184,0.46353218,0.5550032,0.49984375,0.64362776,0.7673735,0.8447863,0.84283423,0.84275746,0.73610294,0.7889138,0.7040775,0.72857285,0.7822408,0.6663434,0.51893103,0.54116756,0.41343248,0.3147848,0.36591804,0.3279654,0.49995962,-0.00392389,0.2891672,0.024611682,0.019240761,-0.3574828,0.21194771,0.023974262,0.14185418,-0.26258615,0.024656994,0.04368645,0.12728992,-0.19712248,0.0504945,0.118287995,-0.014792274,-0.049461875,-0.09443661,0.20995967,0.25724876,0.23187065,0.23543215,0.051569246,0.08293907,0.11128425,0.51941365,0.39317536,0.62118626,0.65710574,0.644183,0.8924367,0.6990801,0.870986,0.7863356,0.8210568,0.8285485,1.278439,1.2437897,0.82947445,0.7691518,0.7787431,1.0578269,0.6572452,0.48749274,0.22849886,0.13326153,-0.34442398,-0.34186167,-0.38378477,-0.46542114,-0.85500187,-0.7419921,-0.9068874,-0.9188723,-0.8740267,-0.8700891,-1.123837,-0.6943567,-1.007933,-0.7883334,-0.74237937,-0.74899584,-0.6039036,-0.45810917,-0.4163288,-0.44890112,-0.41360658,-0.4766214,-0.28759605,-0.12030016,-0.18342623,-0.33486867,-0.3187696,-0.17253767,0.018764488,-0.31494254,-0.27128407,-0.21305135,-0.2887232,-0.43224958,-0.6738064,-0.7882238,-0.6706969,-0.71336085,-0.7170116,-0.8802514,-0.9558859,-0.9575733,-1.0033741,-1.4728,-1.053994,-1.2377982,-1.0475386,-1.1906406,-1.4105344,-1.1149125,-1.273267,-1.2304122,-1.3616211,-1.2275257,-1.1298535,-1.1591485,-1.1622518,-1.3238142,-1.0969188,-0.97066617,-1.1421424,-1.4023299,-1.1440083,-1.1426766,-0.76151353,-0.71606475,-0.6470684,-0.45450222,-0.75711346,-0.62116414,-0.4467407,-0.64898217,-0.4688764,-0.22645143,-0.32912898,-0.17419514,-0.33065653,0.01380519,-0.14219424,-0.13395227,-0.038171414,0.017668735,-0.06451526,-0.048976548,0.09812724,-0.0724108,-0.035277575,0.085234545,-0.017262235,-0.066928655,0.017262155,-0.23527631,-0.038378753,0
-0.22991705,0.06872493,0.037999075,0.06340597,0.049267266,0.12554684,0.04049331,0.19255833,0.27601498,-0.024194017,0.009148989,0.022334794,0.12500194,0.19382986,0.21322712,0.11970673,0.03478535,0.17813745,0.22430594,0.28373918,0.3677648,0.14137886,0.5791935,0.34136543,0.46014294,0.4618537,0.7198357,0.6639128,0.6879602,0.66619086,0.50800425,0.46118522,0.6313725,0.61306244,0.63264877,0.54230136,0.40036437,0.57512885,0.51706964,0.725195,0.56098616,0.44265887,0.3796251,0.39317778,0.4901427,0.32998157,0.24302553,0.3558944,-0.0037928885,0.3375984,0.051911097,0.17127956,0.15452233,0.14421299,0.058506414,0.22362804,0.03126314,-0.14208716,-0.05384608,0.10851486,-0.020388814,0.21480054,-0.09455847,0.033540647,-0.14598185,-0.047414303,0.10331935,0.04923841,0.3413992,0.2884035,0.43573093,-0.029869173,0.24347828,0.37518248,0.41132006,0.482983,0.6398952,0.8704692,0.6463051,0.6083618,0.92574626,0.96803266,1.181405,0.9982443,1.1055977,0.8214812,0.67561495,0.88577014,1.0136123,0.5337706,0.5933504,0.32803908,-0.07006399,0.18488345,-0.017574036,-0.51061803,-0.6681553,-0.67979574,-0.96031576,-0.9170255,-0.90866905,-0.86167216,-1.0375991,-0.885272,-0.9106028,-0.7084366,-0.8515224,-0.62050337,-0.92873585,-0.66326165,-0.69693094,-0.46430603,-0.48535278,-0.54736406,-0.28513885,-0.26236793,-0.38414595,-0.18503442,-0.329997,0.11663258,-0.2682319,-0.40792838,-0.1676325,-0.3549373,-0.63361543,-0.5445312,-0.65358555,-0.34398755,-0.6513037,-0.5830291,-0.73053557,-0.50839776,-0.69332784,-0.68338203,-0.8125802,-0.88867694,-0.81004053,-0.9732231,-1.1868461,-1.0812728,-1.4611528,-1.1831566,-1.325804,-1.1789789,-1.2193315,-1.2396996,-1.2306153,-1.473896,-1.3125124,-1.2962836,-1.1492491,-1.3436179,-1.3090675,-1.0872867,-1.0141878,-1.0376079,-0.85632956,-0.9510964,-0.86978394,-0.71386,-0.61229724,-0.59391797,-0.47197753,-0.26007468,-0.4540893,-0.4568565,-0.21301644,-0.27424568,-0.2664927,-0.38474634,-0.40916362,-0.14955631,-0.2201083,-0.17023686,-0.20823313,-0.094271116,-0.025942244,0.037315194,-0.1867119,0.0020367724,-0.25931394,0.16764887,0.12759688,0.1537629,-0.05989155,-0.123461634,0
-0.16962208,-0.23654236,0.0014428926,0.18758637,-0.13484219,-0.11267707,0.057499994,0.19380869,-0.1424579,-0.19277877,0.10455625,0.20711055,0.053906903,0.25548947,0.109015115,0.3576409,0.13304861,0.03240779,0.22869757,0.26508924,0.33968133,0.32703984,0.48478377,0.47048855,0.4751379,0.5804282,0.61717016,0.5883331,0.70493585,0.80473816,0.57537824,0.6519243,0.5499497,0.72974557,0.6881363,0.70255727,0.44152582,0.6713405,0.44926187,0.69587064,0.4451739,0.39529985,0.4310317,0.2979547,0.43406406,0.28112814,0.20299394,0.051679462,0.2158296,-0.019297404,0.066071734,-0.09090742,-0.009177237,0.11413571,-0.04293116,0.182824,0.22198266,-0.10095066,0.015108059,-0.34928027,0.22460255,0.12326783,0.04593626,-0.035412084,-0.2193318,0.0075153103,0.13591482,0.006975546,0.047442496,-0.00162061,0.33085224,0.38362572,0.25899175,0.42402488,0.5433746,0.7729012,0.78570265,0.44337553,0.8663897,0.54323226,0.6889472,0.7675142,0.8688168,0.7294128,1.0127786,1.040791,0.7972965,0.8525202,0.63490516,0.75500774,0.61363083,0.25472385,-0.0149398865,-0.005287396,-0.32823768,-0.3407107,-0.68265355,-0.7234808,-0.974727,-0.8277873,-0.8871518,-0.9585462,-1.2130132,-1.0240817,-0.81978506,-0.7869951,-0.61996776,-0.7765942,-0.6558623,-0.48037255,-0.57027805,-0.42069852,-0.50839585,-0.50702465,-0.34315467,-0.20435607,-0.4843889,-0.295411,-0.16064051,-0.32695112,-0.2643116,-0.11544817,-0.31718618,-0.33332813,-0.3175343,-0.37555924,-0.43709376,-0.47500768,-0.5052182,-0.568252,-0.73238224,-0.77737164,-0.7569127,-0.62357193,-0.8136409,-1.1291075,-1.0717652,-1.0171684,-0.7973337,-1.0146538,-1.0487096,-1.0880966,-1.025118,-1.1897238,-1.2200638,-1.2085202,-1.474731,-1.2688267,-1.0285214,-1.1745019,-1.1035962,-0.78954387,-1.3029013,-0.90219766,-1.0459017,-0.923333,-0.8418285,-0.8244874,-0.76628536,-0.571294,-0.41879642,-0.34213522,-0.7144726,-0.40752086,-0.28124717,-0.40117067,-0.2923283,-0.36719638,-0.11003287,-0.06302025,-0.27105033,-0.06945323,-0.11102323,-0.22058748,-0.091212265,0.03601404,0.02733995,-0.10117842,-0.040898524,0.07188913,0.1015665,-0.09732139,0.08179098,0.20493937,0.05035705,0.34765682,0
-0.005788973,-0.04342121,-0.08795165,0.12799327,0.10061028,0.076591335,0.20243028,0.27679262,0.15499918,0.22337815,0.22124328,0.06980693,-0.11833344,0.23661202,0.31274062,0.35834265,0.23148404,0.37379354,0.1917569,0.11382052,0.19460295,0.19989388,0.37849867,0.5888742,0.7252613,0.6219528,0.66053534,0.42156386,0.70341307,0.63155913,0.5533308,0.6180891,0.76659656,0.74771047,0.7935926,0.8556053,0.58559215,0.81603837,0.5481602,0.5858402,0.46622932,0.5241175,0.49678558,0.44591224,0.54098177,0.43822965,0.26863235,0.23869081,0.36365888,0.11638007,0.025398232,-0.011601889,-0.16470596,0.13207372,-0.14582244,0.03579857,0.024319382,0.13370807,0.059219632,-0.028749328,0.099287204,0.10970258,0.1317208,0.19440666,0.20848773,0.26069507,0.14783604,0.15745878,0.17475802,0.20941207,0.054736927,-0.019505154,0.3781492,0.111091405,0.3202708,0.68182683,0.5879688,0.9091246,0.76309437,0.76224035,0.9633177,0.969284,0.7944894,1.0672569,0.82592106,1.3246982,1.0193384,0.92684764,0.6850987,0.31441846,0.15311213,0.3283372,0.2080222,-0.061559517,-0.082974926,-0.4682666,-0.471106,-0.4304025,-0.9653739,-0.82534146,-0.9417554,-1.0581625,-1.1388631,-0.8101404,-0.9279015,-1.1473527,-0.83777976,-0.5385374,-0.5773608,-0.6728641,-0.5728437,-0.6396279,-0.31691173,-0.4311071,-0.5569734,-0.43701208,-0.17632324,-0.16238163,-0.20917594,-0.2129614,-0.1974263,-0.44968283,-0.43841836,-0.28627354,-0.60742277,-0.5261364,-0.37879914,-0.32507178,-0.5578586,-0.6609826,-0.7628836,-0.75697166,-1.0308546,-0.8328308,-0.90488803,-0.9305839,-0.8835144,-1.0416324,-0.9910704,-1.1322895,-1.173299,-1.2075301,-1.2511525,-1.1292922,-1.3530767,-1.1185384,-1.473439,-1.1091354,-1.2347661,-1.1673189,-1.4043381,-1.0278499,-1.0976158,-0.8497147,-1.2501739,-0.93892115,-0.9379791,-1.0441183,-0.71271425,-0.83089423,-0.6557072,-0.54410684,-0.75180656,-0.592041,-0.5722211,-0.44442785,-0.3782317,-0.19795072,-0.27037415,-0.2959199,-0.13411832,-0.101507,-0.017631477,-0.120706595,0.033527516,-0.06594408,0.069614805,0.08596166,0.1456232,0.039922286,0.22369589,-0.0085415,0.019859128,0.0670985,0.18888654,0.020682555,0
0.068135165,-0.048571322,-0.0025954726,-0.13219006,0.44435477,-0.06990441,0.06924058,0.23506859,0.092652306,0.15488154,0.3258514,0.116107106,0.16301021,0.20149076,0.22636126,0.08908741,0.23702168,0.40779224,0.12126774,0.22079663,0.4720673,0.14558771,0.57381636,0.5256417,0.59698766,0.3078739,0.63500226,0.65519345,0.6452714,0.52665555,0.7120795,0.65109164,0.62334186,0.89139,0.41356832,0.5246631,0.60853994,0.5396666,0.5462566,0.77440137,0.35110328,0.5096569,0.5690445,0.4544685,0.339893,0.41330606,0.12404302,0.23725997,0.20367369,0.19010131,-0.06909191,-0.11638563,0.032153454,0.053052537,0.093445376,0.21009006,0.072259225,0.33773726,0.15076414,0.124086045,-0.08793626,0.050908905,-0.006799235,-0.16823775,0.041522443,-0.1449927,0.054772396,0.024272187,0.076845124,0.25813606,0.23799828,0.33703625,0.2577964,0.20410855,0.28408822,0.5577874,0.61872303,0.38492668,0.603298,0.81999916,0.99423224,0.8355524,0.9003738,1.1794568,1.0072376,0.9075193,1.1332022,0.73818773,0.8206915,0.643817,0.547252,0.18307638,0.0127469925,-0.22022924,-0.23112382,-0.18564352,-0.6660355,-0.5259498,-0.8736121,-0.9167163,-1.1377699,-0.71932995,-0.6617832,-0.8533035,-1.0007977,-0.6865194,-0.8857472,-0.6054545,-0.91676396,-0.665847,-0.5269585,-0.53003424,-0.37477034,-0.22616434,-0.2043908,-0.47227126,-0.4551466,-0.24033578,-0.24782705,-0.32876587,-0.41726935,-0.18489474,-0.29815924,-0.31105146,-0.04469933,-0.35624966,-0.23411633,-0.5610797,-0.6711806,-0.62895566,-0.79402435,-0.75814635,-0.86180884,-0.744037,-0.7046492,-0.75894696,-0.9432102,-1.0706846,-1.1209532,-1.0971147,-1.046547,-1.164663,-1.2958574,-1.1776938,-1.3258159,-1.1422644,-1.3680387,-1.1863518,-1.2557893,-1.0395123,-1.4742366,-1.0179697,-1.1634083,-1.1196603,-0.8435523,-0.92876583,-0.9230379,-0.98178065,-0.9854736,-0.70164263,-0.9616197,-0.73078597,-0.42955542,-0.3005434,-0.23995179,-0.3741891,-0.36324602,-0.08906729,-0.084905885,0.046216354,-0.22913462,-0.07565383,-0.23632239,-0.29396778,0.08497378,0.01690053,-0.17131366,0.07198258,-0.0153396595,0.057906274,0.036010444,-0.0309889,-0.07185656,0.16454093,0.124844134,-0.23940794,0
-0.16949068,-0.090452075,0.13922231,0.09144376,-0.18148352,0.065232985,-0.1996338,-0.10364084,-0.020087555,0.34095967,0.29547158,-0.0169464,-0.038729727,0.1593509,0.30103195,0.072262965,0.23537302,0.13871156,0.046197157,0.22809763,0.32141387,0.28311944,0.31082278,0.62805104,0.49632835,0.5597688,0.61601585,0.51571274,0.66553986,0.50792515,0.6076135,0.7983126,0.68219316,0.782632,0.53203547,0.6063594,0.66245425,0.6086546,0.43312544,0.44189134,0.45057634,0.69415355,0.3361025,0.49644533,0.301662,0.42777276,0.44956592,0.25953594,0.07201194,0.19585006,0.24418291,-0.11755314,-0.119070776,-0.134229,0.0145397475,0.06251196,0.15973577,0.064436525,-0.13171668,0.010352244,0.17857438,-0.13059604,-0.042597417,-0.11963793,0.20288897,0.03832165,0.3481491,0.026390167,0.03611439,-0.129144,0.33766818,0.12307785,-0.015595905,0.6298692,0.40652612,0.2647942,0.9187092,0.7567374,1.0893282,0.9472966,1.0197687,1.0255563,0.8176415,1.0841709,0.96822757,0.92834586,1.1617275,0.9928497,0.9099478,0.52090126,0.6412554,0.26972398,0.22336261,-0.03210739,-0.33229116,-0.64119565,-0.73849857,-0.4530958,-0.7815868,-0.88746405,-1.1080757,-1.2440901,-0.8683263,-0.80962735,-1.0213596,-0.9473973,-0.96061677,-0.58871084,-0.60908526,-0.79519147,-0.69530195,-0.4187129,-0.36212596,-0.3961555,-0.40217617,-0.5019093,-0.4256342,-0.05489139,-0.2956037,-0.4806163,-0.14256088,-0.331709,-0.4752425,-0.20763126,-0.47928795,-0.60029036,-0.4077231,-0.38228828,-0.67985517,-0.44894785,-0.76241755,-0.7808479,-0.89618933,-0.89991224,-0.7597262,-1.1258483,-1.2825541,-1.1494902,-1.2979282,-1.2755738,-1.2534708,-1.1021321,-1.4216864,-1.3263972,-1.1474478,-1.4479548,-1.3167131,-1.3173072,-1.3472259,-1.157046,-1.4725482,-1.2517313,-1.3486888,-1.1850996,-1.1078953,-0.9079584,-0.97422665,-0.77528715,-1.0337548,-0.64364743,-0.5196906,-0.94892806,-0.63337785,-0.6840046,-0.51447046,-0.55263335,-0.43941256,-0.30100542,-0.15687849,-0.16086577,-0.1995194,-0.30513856,-0.016011357,-0.17736398,-0.17770447,-0.05263266,0.027486866,0.030403974,-0.080556124,-0.18329269,-0.039546482,0.014094146,0.075884745,-0.07141212,0.10256115,0.21496038,0
-0.09350176,-0.21860413,-0.06632916,0.026458899,-0.040497467,-0.0047407686,0.070653625,0.09218635,0.058930393,0.21471189,0.034154702,0.26246393,0.17565885,0.20386077,0.09423005,0.3557669,0.19751568,0.14889419,0.24496673,0.42807648,0.6273516,0.59796965,0.39803144,0.4671684,0.7120782,0.63114434,0.5814293,0.6703842,0.74348295,0.8988744,0.44458273,0.79770535,0.60920054,0.8868252,0.81535345,0.66869116,0.59606117,0.66790766,0.4991257,0.37997282,0.50398016,0.7538163,0.5563891,0.36688837,0.08946466,0.2629693,0.18316786,0.23438112,0.18486984,-0.14187299,0.01851881,0.22752827,0.12505575,0.1483014,-0.14129286,0.1820552,-0.11656944,0.12188891,-0.027981697,0.13593292,0.06656345,-0.08815319,0.22207864,0.21161869,0.14741574,-0.18191777,-0.13687351,0.19354026,0.14752744,0.016030818,0.30544946,0.22123829,0.44047433,0.468196,0.54131913,0.46920618,0.51910955,0.6410956,0.3308384,0.97629255,0.7745363,1.0101802,0.8370546,1.1966512,1.040174,0.9949139,0.88338614,0.9993738,0.6865904,0.63559234,0.65093887,0.30693188,-0.03302607,-0.09733656,-0.37973005,-0.5655173,-0.63789725,-0.71785253,-0.5175049,-1.0235809,-0.82992995,-1.072776,-0.9142875,-0.87432736,-0.8762865,-0.82263595,-0.63350165,-0.71961206,-0.7273825,-0.36787602,-0.37612766,-0.6444285,-0.4887581,-0.2767659,-0.3140392,-0.20338032,-0.30310372,0.083754435,-0.24851945,-0.1443365,-0.17152193,-0.048159268,-0.28733698,-0.38636747,-0.5628516,-0.46244934,-0.31139657,-0.2335716,-0.48496503,-0.5726712,-0.74789786,-0.7792188,-0.4803359,-0.7587119,-0.98723197,-0.6452238,-0.97801256,-0.97207415,-1.047891,-1.2414011,-1.19237,-1.0493829,-1.2817607,-1.1765239,-1.0587367,-1.3696916,-1.2533777,-1.4137686,-1.2757944,-1.0494663,-1.091943,-1.3447124,-1.4738928,-1.0875571,-0.89769596,-0.89988637,-1.1472929,-0.84035283,-0.85620016,-0.7438675,-0.7330788,-0.35810676,-0.5046269,-0.2727789,-0.50246936,-0.38650686,-0.24750327,-0.39683357,-0.29856226,-0.27147987,-0.1667603,-0.3608791,-0.24587709,-0.36565605,-0.22877723,-0.15431453,-0.083107926,-0.016320486,0.073193066,0.049454086,-0.060119957,0.09596459,-0.048577756,-0.22032537,0.077601805,0.116552986,0
-0.05742152,0.20676075,-0.13635479,-0.06772775,0.0018663554,0.1734056,0.23926115,0.08664115,-0.13888106,0.05961186,0.03530404,0.26723394,0.29743204,0.2898747,0.21264628,0.21233737,0.27484334,0.04914544,0.12443426,0.35823813,0.51766247,0.513565,0.37603933,0.66108197,0.6423153,0.5311192,0.5655673,0.6078942,0.66022897,0.8127438,0.73959213,0.68436235,0.3354607,0.59794176,0.7090392,0.75044686,0.5112704,0.83502734,0.5964943,0.43279037,0.7631718,0.33840606,0.4119254,0.33610943,0.20141052,0.34296405,0.34780905,0.11016278,0.28164232,0.14822209,0.25074187,0.31883806,-0.023352126,0.08711821,0.036795843,0.037475105,-0.20459768,0.2218447,0.1601528,-0.0016985897,0.1965299,-0.048563477,-0.2783066,0.30225402,0.08754008,-0.048755255,0.033500805,0.038081616,0.15090105,0.052432362,0.055636894,0.24941044,0.22784887,0.6079959,0.32267588,0.69061315,0.4460269,0.7450506,0.7158657,0.7861407,0.67802864,0.9332329,0.89942414,0.90265125,1.1590714,0.83412504,0.80711895,0.97785294,0.74490356,0.64318585,0.23515476,0.4146063,0.059446,-0.00072881475,-0.37331188,-0.33086696,-0.5406046,-0.721781,-0.6015315,-0.8332952,-0.9540821,-1.0764369,-1.1145483,-0.99511737,-1.143522,-0.95249486,-0.7148505,-0.9212047,-0.9281158,-0.49602932,-0.480023,-0.39450103,-0.24969324,-0.42601788,-0.23568222,-0.3776388,-0.16660903,-0.25607762,-0.28024298,-0.12799309,-0.20413628,-0.05906153,-0.35125163,-0.3520578,-0.43929985,-0.5578748,-0.5690621,-0.40481836,-0.61946636,-0.4643659,-0.7027319,-0.5556529,-0.6733111,-0.70964074,-0.8466123,-0.7714779,-0.9985401,-1.027666,-1.0202644,-1.0944909,-0.9783873,-1.0441436,-1.4076724,-1.1787726,-1.2671565,-1.1264315,-1.2973895,-0.99505043,-1.1753268,-1.2107801,-1.4740167,-1.2873456,-0.9739693,-1.0053364,-0.867578,-1.0691731,-0.83562654,-0.8738098,-0.8461174,-0.7985516,-0.8978931,-0.72255313,-0.71858865,-0.59147555,-0.37093952,-0.19833145,-0.40756676,-0.17639649,-0.45197216,-0.3536889,-0.24131054,-0.15919264,-0.29357797,-0.13644768,-0.20348454,-0.16951887,-0.12233992,0.016024731,0.030283887,-0.09200904,0.18168928,-0.036228634,0.010456861,-0.10050015,0.049504872,-0.15689175,0
0.030308021,0.1123808,-0.029939419,0.02775725,0.24328768,0.051216535,0.1550393,0.03057792,-0.07224865,-0.08366538,0.04113478,-0.02566911,0.046961244,0.28264093,0.0130352685,0.20504583,0.14081192,0.34514236,0.15509386,0.31284174,0.39944422,0.49406683,0.40273222,0.4291587,0.47780544,0.67144567,0.78299004,0.67850775,0.47874355,0.6272269,0.7777634,0.6097634,0.6885813,0.5118899,0.5942454,0.47763795,0.6786877,0.5489611,0.4862857,0.43310678,0.44301742,0.43878746,0.24772479,0.3677918,0.16148515,0.288291,0.3129047,0.20949078,0.27741253,0.12603253,0.26479793,0.048906066,0.02907594,0.07665067,-0.12694229,-0.011909889,0.041104816,-0.16358478,0.23696992,-0.10620076,0.012241943,-0.048693303,-0.021058207,0.22316842,0.032632392,0.018511593,-0.031808507,-0.015723132,0.18334308,0.23899442,0.15677893,0.16978572,0.22667402,0.063323915,0.27134514,0.33082208,0.5037201,0.4949818,0.5857324,0.765774,0.95789784,0.8751587,0.8753403,0.84949124,0.92836714,0.8369035,0.514767,0.6793185,0.6713138,0.59249675,0.17766872,0.12895902,0.07130967,-0.07903635,-0.32800433,-0.49700683,-0.41562858,-0.74606925,-0.7148227,-0.727977,-0.79362243,-1.0161116,-0.7214921,-0.9502368,-0.59808815,-0.9138638,-0.8460297,-0.48502132,-0.66875994,-0.59618753,-0.4596332,-0.20382278,-0.39157677,-0.46175247,-0.4394153,-0.21826032,-0.02127419,-0.31362125,-0.10643344,-0.02230797,-0.08463596,-0.17626171,-0.20878166,-0.14516747,-0.14024016,-0.48795927,-0.28852376,-0.21191625,-0.48107544,-0.65679735,-0.5093065,-0.63922024,-0.45925793,-0.7397727,-0.99870044,-0.8894761,-0.90712947,-0.95937455,-1.067424,-0.7973122,-0.7991361,-0.9006943,-0.949029,-1.091386,-1.1452839,-1.3935338,-0.97868735,-0.97214514,-1.4764434,-1.2554905,-1.08023,-0.9584415,-0.96437114,-0.9750465,-1.0066239,-0.95629615,-0.87666917,-0.8416233,-0.8527028,-0.68143934,-0.6186867,-0.27016652,-0.750161,-0.37694547,-0.48740858,-0.37879723,-0.28795826,-0.3326396,-0.2574134,-0.22275709,-0.16505693,-0.12816323,-0.09046089,-0.11432754,-0.21768446,-0.3311775,0.075109094,-0.075267054,-0.025670154,0.00418643,0.10315283,0.07136078,0.12643525,-0.07183185,0.15170397,0.05510675,0
-0.04132301,-0.19975944,-0.09795212,-0.12492078,0.025764685,0.07595137,-0.051507007,-0.21323362,-0.01092423,0.11281318,0.13863179,-0.1957269,-0.030895198,-0.03768603,0.15633558,0.06027386,0.07353858,-0.020951165,0.27221057,0.41365996,0.35922912,0.31615168,0.2752931,0.43737552,0.44348735,0.76007795,0.38775307,0.87581545,0.8964177,0.6288535,1.0412388,0.8487478,0.50579846,0.9758064,0.5637392,0.6771807,0.69559836,0.5856322,0.5093654,0.5887194,0.65473104,0.24843603,0.4365447,0.22831847,0.35067606,0.48865342,0.23443118,0.17104863,0.330682,0.1054485,0.21549556,0.16249673,-0.13472676,0.11315377,0.090647176,-0.04836174,-0.010606483,-0.22706878,-0.0715428,0.06660083,0.024966808,0.01641154,0.05034456,0.009159256,0.1608872,0.24025872,-0.066981636,0.12840052,-0.18310522,0.24015419,0.26064688,0.055130363,0.33522043,0.4340931,0.20987658,0.48741645,0.53636605,0.81627834,0.83160555,0.77977455,1.1104416,1.0797609,1.0003786,0.8546117,1.0122155,1.0840228,0.9560125,0.87645024,0.5196513,0.41958374,0.53963786,0.06812799,0.20873077,-0.20373063,-0.39075717,-0.2567148,-0.64344484,-0.61426294,-0.8176415,-0.8772818,-0.7266498,-1.1065822,-1.2244338,-0.93824685,-0.93734044,-0.76250345,-0.932399,-0.9650131,-0.45498464,-0.75549686,-0.6686593,-0.37788516,-0.6408859,-0.28932297,-0.23371886,-0.2002606,-0.2846112,-0.1468713,-0.25788188,-0.22474165,-0.26880375,-0.28544968,-0.12091728,-0.29843643,-0.43782583,-0.35983276,-0.85605836,-0.45858175,-0.6629223,-0.70754457,-0.85424745,-0.74259555,-0.8179011,-0.86134654,-0.9354286,-1.0863069,-0.9977811,-1.2343585,-1.3634049,-1.2755517,-1.3884321,-0.9869457,-1.3407607,-1.0710905,-1.3594003,-1.1317657,-1.2088294,-1.4543705,-1.3640107,-1.1740763,-1.3597035,-1.4717714,-1.2695614,-1.2987727,-1.2008536,-1.0702595,-1.1243132,-0.90375835,-1.0013818,-0.42388725,-0.39173976,-0.38270953,-0.6366947,-0.5228302,-0.44252768,-0.22664008,-0.4209563,-0.24330524,-0.28949973,-0.29728508,-0.2068672,-0.42653334,-0.11741603,-0.19623782,-0.30969986,-0.038476937,0.08015291,-0.08289954,-0.2957446,-0.0650979,-0.21809554,-0.21149541,-0.09388301,-0.2980301,-0.10343385,0.028482396,0
-0.14838202,-0.25147104,0.1047551,-0.051960558,0.29383785,0.018605746,0.2785607,-0.10214326,0.02929886,0.08592777,0.12840044,0.24765134,0.23853071,0.10723999,0.0332174,0.1896953,0.11302593,0.24342458,0.46501985,0.31121024,0.27194056,0.44179994,0.5418865,0.41632733,0.40372837,0.5872465,0.80484176,0.53350455,0.80152273,0.7630158,0.5808287,0.71690774,0.7127097,0.66392374,0.67985576,0.6209902,0.7213941,0.34856018,0.6849799,0.6238248,0.5571263,0.5272411,0.1885422,0.4749733,0.24792716,0.2180736,0.40769643,0.24485601,0.27286202,0.10404738,0.0065373317,-0.06214895,0.24064133,-0.086601675,0.29405367,0.1451504,0.13735138,0.12798542,0.14820251,0.13448896,0.07863677,0.3658667,-0.010748327,-0.12393709,0.029715095,0.028332595,0.42286524,-0.11849681,0.0711821,0.14628674,0.3119659,0.374417,0.299775,0.6943325,0.3952035,0.7505087,0.4957204,0.8233755,0.9217965,0.8396607,1.1274132,0.96506184,0.9263699,1.1813059,1.0231327,1.1107024,0.9837895,0.61955035,0.9222875,0.6933594,0.3859604,0.5213045,0.100714915,-0.0143198855,-0.32268792,-0.2856232,-0.3836287,-0.80185056,-0.90559834,-0.8706428,-1.0531745,-0.92358655,-1.0432128,-1.2239206,-0.98586315,-0.92658937,-1.0007627,-0.7491024,-0.7092479,-0.6836672,-0.3974814,-0.27405027,-0.41635102,-0.3437986,-0.36178237,-0.36488637,-0.3839946,-0.33370274,-0.41147786,-0.36414972,-0.36901164,-0.57899654,-0.031438816,-0.03836807,-0.50747436,-0.20707987,-0.52197033,-0.25825113,-0.47197977,-0.75545347,-0.6314064,-1.0085335,-0.8087114,-0.7954192,-1.2343204,-0.9131307,-1.1439061,-1.2377651,-1.1472971,-1.2907684,-0.87563276,-1.1078461,-1.4410007,-1.2570158,-1.0726683,-1.4726764,-1.3237376,-1.1298343,-1.3952806,-1.2645814,-1.4681287,-1.2136116,-1.1753533,-1.3087517,-1.2238811,-1.0902281,-0.8931119,-0.7418586,-0.82786036,-0.873878,-0.6525962,-0.54425573,-0.386657,-0.36057717,-0.5094493,-0.3044653,-0.6119485,-0.40525258,-0.15053433,-0.07312292,-0.20374782,-0.10199307,-0.44363892,-0.26139605,-0.14156023,-0.037510376,-0.015074397,-0.112725794,0.058690708,-0.31656855,-0.43680328,0.025340512,-0.32152262,0.24011832,0.17331903,0.18274347,0
-0.0022244027,-0.027817996,0.10253093,0.06998335,-0.017493727,-0.10918325,-0.25277007,0.08854968,-0.03885229,0.10169733,0.19215398,-0.1108398,0.099080384,0.21220087,0.1299483,0.09899218,-0.1105254,0.46140596,0.39836055,0.13616796,0.5861768,0.34890234,0.28705212,0.41730565,0.65874964,0.6981419,0.73088163,0.56773984,0.9221152,0.6256506,0.98142755,0.6683042,1.0287834,0.53585607,0.43164966,0.69154495,0.39259118,0.5759404,0.43234405,0.79893595,0.7003609,0.6262929,0.16794509,0.46182543,0.45992112,0.31279364,0.24574235,0.34647304,-0.12583427,0.13766533,-0.19853835,-0.06166382,0.30520016,0.046941392,-0.04311387,0.043411262,-0.07279549,0.069425076,0.12231325,0.17222258,-0.018207148,0.0009682192,-0.17737944,-0.124964,-0.0137411095,0.2013244,0.050977174,-0.08679368,0.13279277,-0.016287517,0.27311376,0.14612007,0.3276213,0.5695319,0.5165617,0.60594577,0.60382307,0.7734554,0.9177629,0.91854167,0.9442923,1.1931417,1.0816103,0.9212686,0.9049923,1.0208936,0.9900254,0.66997,0.9637435,0.65428174,0.35387224,0.5248794,0.03844324,0.09284681,-0.1626329,-0.1860657,-0.7744284,-0.56016517,-0.86068046,-1.056121,-1.0285698,-0.7638323,-1.1295569,-1.2095904,-1.1668766,-0.7658337,-0.9177526,-0.5174047,-0.73324764,-0.67627805,-0.32150573,-0.3765901,-0.24707314,-0.13509071,-0.34955794,-0.10000944,-0.18955211,-0.52606344,-0.1688934,-0.067785926,-0.30141947,-0.5645298,-0.32122236,-0.38157177,-0.34424686,-0.5853433,-0.70955086,-0.7244329,-0.6258288,-0.4306336,-0.6555615,-0.75732607,-0.83542866,-0.8639497,-0.8511912,-1.0248607,-0.93522954,-0.89411336,-1.0493835,-1.0873778,-1.4718212,-1.0855463,-1.427127,-1.3460221,-1.3630519,-1.4254009,-1.4278964,-1.4396206,-1.3899317,-1.4543141,-1.1558205,-1.2645686,-1.2925022,-1.192947,-1.223925,-1.2139082,-1.0361997,-0.70701975,-0.82515657,-0.9052505,-0.6122442,-0.845124,-0.6221971,-0.5551235,-0.718744,-0.44066846,-0.18686105,-0.0794447,-0.24755839,-0.15028292,-0.019563086,-0.3084382,-0.23983906,0.1977162,-0.12471657,-0.3824159,0.09518766,-0.112595856,-0.104546055,-0.012043978,-0.10206371,0.11104037,0.10458599,-0.20065193,0.19008516,0.09646279,0
-0.14107047,0.006177941,-0.3414516,-0.06834516,0.08255561,0.033021003,-0.33744204,-0.17781468,0.15113904,-0.13537735,0.118859924,0.22888905,0.02137798,0.30855468,0.1398866,0.21559879,-0.10155413,0.21166164,0.24053746,0.289398,0.3939941,0.31175625,0.49395597,0.31532976,0.41195646,0.57678455,0.5061925,0.38470638,0.7465513,0.95802605,0.7850566,1.0713762,0.89273834,0.5784402,0.50864583,0.6515915,0.7035387,0.61729234,0.4043773,0.69772583,0.6527548,0.44862244,0.44351375,0.43252182,0.36005464,0.3597007,0.5808398,0.1423038,0.24806577,0.07526614,0.12675749,0.055037368,-0.009113624,0.14453839,-0.06075077,0.10127811,0.2304106,0.16298494,-0.026572205,0.2172005,-0.18769024,0.1465095,-0.08661258,0.118827365,-0.08449761,-0.026837524,0.096621655,-0.12030865,-0.2294681,0.15524067,0.16060504,0.14159815,0.24591342,0.29668587,0.5553652,0.4891408,0.92836666,0.7464116,0.7287562,0.80152696,0.78519017,1.1663257,1.0300735,1.0233471,1.1717014,1.052163,0.9702459,0.96618956,0.63110393,0.52723515,0.6138491,0.28192577,-0.03355046,-0.23824036,-0.63592815,-0.40515918,-0.6654568,-0.72055227,-0.8153798,-0.99773943,-0.9522934,-1.1429973,-1.2504246,-1.3139732,-1.0567123,-0.6212615,-0.86428565,-0.7686907,-0.66687393,-0.59220237,-0.7736149,-0.51989555,-0.39183822,-0.34169525,-0.2985394,-0.098466784,-0.34032303,-0.26193365,-0.09009932,-0.37141833,-0.026144514,0.066371076,-0.22507802,-0.28911108,-0.6172946,-0.3105043,-0.6377196,-0.47200778,-0.460108,-0.93611103,-0.67076045,-0.81190526,-0.92822087,-0.6788686,-1.206524,-0.83509773,-0.92335004,-1.184836,-1.2694421,-1.1164738,-1.0652951,-1.193077,-1.4727587,-1.1521728,-1.2751652,-1.249798,-1.3689164,-1.3122053,-1.1409628,-1.2532562,-1.3132429,-1.1563681,-1.031081,-1.1647397,-1.0380378,-1.030507,-0.8828112,-0.7745625,-0.80530274,-0.4495384,-0.6734278,-0.73093975,-0.40638286,-0.3847502,-0.7480661,-0.5465995,-0.50001806,-0.46017408,-0.30408302,-0.393615,-0.4591151,-0.35785782,-0.077732906,-0.070175566,-0.36173484,-0.014630054,-0.0105809225,-0.0052395915,0.008941161,-0.19319269,0.12747721,-0.26604265,-0.09638532,0.16799732,-0.060414176,0.110591695,0
-0.112535745,-0.20334479,-0.06713854,-0.32790598,0.049976557,0.12937768,-0.047816496,0.067619644,-0.051932536,-0.061212044,0.095509596,0.024235517,0.13830875,-0.008883256,0.26102737,0.31354043,0.041663565,0.37854192,0.32548127,0.2182084,0.23841631,0.17420729,0.5419952,0.37771505,0.28830242,0.5688118,0.4867197,0.56598914,0.8685618,0.47200727,0.75977486,0.51703006,0.70185083,0.6044707,0.6425066,0.76632994,0.5189623,0.8462668,0.52083844,0.45473284,0.37613934,0.48857486,0.3136638,0.28289574,0.6838071,0.24920267,0.32233188,0.41406825,0.2641295,-0.004730506,0.08999581,-0.08590344,0.19003342,-0.030252408,0.20770706,0.13537915,0.03992559,0.10462142,0.08611734,0.21717355,0.32309136,-0.02971799,0.28044373,-0.015907247,0.2480029,0.027470887,0.021515818,0.0048886207,0.02534158,0.46149996,-0.012283617,0.2930029,0.21475989,0.6515322,0.61790067,0.3134682,0.6590519,0.514929,1.028654,0.5162485,0.9080776,0.81923735,0.8053751,0.7601351,0.7514498,0.96764135,0.9829806,0.5006193,0.6395462,0.711733,0.4722164,0.110605106,-0.06951171,-0.15153386,-0.46580404,-0.42342213,-0.43937033,-0.7202008,-0.9476646,-0.9487621,-0.7401515,-0.83399975,-0.72063345,-0.8688944,-0.98277426,-0.6756179,-0.9239502,-0.6275704,-0.39139402,-0.59730107,-0.38774213,-0.52320486,-0.08112889,-0.3098979,-0.2345838,-0.365016,-0.173387,-0.29530808,-0.10455607,-0.01953929,-0.38271767,-0.31578165,-0.08959639,-0.108579256,-0.29903945,-0.49709252,-0.32051024,-0.39153463,-0.96464443,-0.6406819,-0.5596271,-0.6551405,-0.8369267,-0.7428815,-0.9689214,-1.0350726,-1.1370577,-1.0076566,-0.8325196,-1.1121963,-1.1426575,-1.414529,-1.0379596,-1.1693007,-1.3007095,-1.1143007,-1.4744813,-1.308372,-1.2820696,-1.1729122,-1.1542177,-1.1151111,-1.0799658,-1.0471213,-1.0638196,-1.1245875,-0.9797298,-0.81967086,-0.49449617,-0.9367617,-0.78247476,-0.6109969,-0.8012917,-0.5513055,-0.37135524,-0.4058562,-0.34454712,-0.48079342,-0.31211194,-0.15154509,0.023612635,0.052662443,-0.071392946,0.10164343,-0.20060448,0.081313886,-0.043893915,-0.17242286,0.01029649,-0.06337789,-0.029165152,-0.035659935,-0.07294289,-0.09312679,0.13601394,-0.14367254,0
-0.02247229,-0.02769641,0.1066276,-0.023097448,0.15291418,0.013160463,-0.0012753545,0.09571054,0.115643725,0.18695475,0.1661086,0.13250186,0.120917305,0.13286981,0.26787534,0.44945535,0.15379679,0.10531816,0.17696942,0.3438347,0.35819697,0.48981962,0.44893286,0.5030524,0.32433584,0.4975183,0.73820156,0.5437049,0.6042734,0.75518864,0.7575969,0.6268352,0.7849176,0.5836048,0.76298726,0.7242507,0.46698,0.5112882,0.4927915,0.7640008,0.51785886,0.470805,0.48161712,0.36353967,0.21559165,0.29356772,0.17593373,0.2813996,0.48808658,0.23741661,0.13408893,0.12998334,0.15547495,0.05588136,-0.081307165,0.2227106,-0.058736898,-0.16590396,0.059014034,0.11910153,0.04486965,-0.037966322,-0.22532937,-0.014098735,0.09215702,0.21853249,0.11276086,0.07583971,0.06386096,0.2217654,0.25460795,0.15914088,0.18720421,0.31325144,0.8128825,0.6752225,0.6371635,0.485147,0.634414,0.6352303,1.2240603,0.9627172,1.2647637,0.8004854,0.9961686,0.9286793,0.9556958,0.76988536,0.8226997,0.51915056,0.4051237,0.2994864,-0.018416615,-0.25463334,-0.46831286,-0.21775766,-0.25268796,-0.46342742,-0.71096873,-0.98669654,-0.90722305,-0.9597709,-0.9255501,-1.0076267,-0.96838367,-0.9026351,-0.8939947,-0.5755506,-0.8802701,-0.74024826,-0.34021014,-0.49997962,-0.5935895,-0.44144747,-0.24142627,-0.087426625,-0.45518517,-0.14134906,-0.431352,-0.41184518,-0.28533882,-0.43744016,-0.3534084,-0.13773002,-0.36569214,-0.5472956,-0.4706683,-0.44634682,-0.39426848,-0.43480492,-0.5100868,-0.56138587,-0.73992646,-0.84855366,-1.0449306,-0.8266181,-1.2195609,-1.0721717,-1.2167014,-1.0906303,-1.1061283,-1.4694963,-1.24311,-1.0868165,-1.221347,-1.4741458,-1.2432262,-1.3043463,-1.0471448,-1.1475478,-1.081815,-1.296339,-1.0158747,-1.197283,-1.1313201,-0.8065782,-0.79471,-0.6436303,-0.98181796,-0.7738658,-0.6804503,-0.5692395,-0.44803402,-0.36343205,-0.70187426,-0.46064863,-0.5401099,-0.37848598,-0.3019004,-0.2795214,-0.27858138,-0.2515299,0.048358135,-0.118308865,-0.29380238,-0.013905326,0.085442744,-0.12176183,-0.18146256,0.034305584,-0.08900329,0.013915571,0.17270909,0.16591232,0.008027066,0.09309035,0
0.058783025,-0.10996216,-0.034881324,0.0011728032,-0.017077954,0.18130451,0.0497443,0.09065997,0.020343518,0.22341049,0.19761324,0.243137,0.16152632,0.264025,0.3102304,0.06986978,0.4148086,0.17405026,0.40263027,0.42902505,0.28929698,0.5092819,0.49384648,0.6052069,0.3420683,0.83498704,0.6423023,0.6492861,0.85904026,0.66452956,0.7756806,0.7448956,0.7427449,0.73842585,0.7642523,0.69721913,0.78275245,0.79968387,0.45057845,0.48155582,0.36512166,0.4456465,0.41317484,0.53188914,0.4604893,0.46396562,0.34185806,0.2641756,0.2699539,0.19771184,0.15166567,0.20838173,0.06693921,0.18789187,0.012427366,0.1709295,-0.23522803,0.0604434,0.031730555,-0.20157121,0.036925174,0.20039223,0.06742087,0.22045043,-0.031246968,-0.063515395,0.27723363,0.08803236,0.29329067,0.18117997,0.4818759,0.5728074,0.2003898,0.43612355,0.17811336,0.42558455,0.5171062,0.63236976,0.6702562,0.91762805,1.3273801,0.8686305,0.9098977,1.2733289,1.0511016,1.0707655,1.2314076,1.048672,0.6590608,0.8579996,0.63426864,0.26815477,-0.11426418,-0.14983052,-0.322961,-0.25296798,-0.2934289,-0.91591775,-0.8840441,-0.9792975,-1.210345,-1.136401,-1.1337906,-1.0038204,-0.9392875,-1.092258,-0.55494463,-0.62319326,-0.7496813,-0.5579065,-0.32423964,-0.43283612,-0.4663468,-0.35866877,-0.40453237,-0.33105046,-0.100035705,-0.5081019,-0.26818344,-0.35776532,-0.25693056,-0.26850036,-0.37336987,-0.5626157,-0.2285987,-0.3254386,-0.107667446,-0.5016942,-0.37492973,-0.49417138,-0.6647845,-0.5925322,-0.7156194,-0.82102954,-0.9542144,-0.90722597,-0.8691298,-1.2175982,-1.3596704,-1.2414894,-1.4532919,-1.1288022,-1.2016718,-1.331855,-1.0111556,-1.4720106,-1.0398649,-1.4424963,-1.4654328,-1.2120905,-1.1658695,-1.3091748,-1.092411,-1.11997,-0.95901567,-1.1681123,-0.81929606,-0.7023076,-0.8719409,-0.73397064,-0.72098315,-0.7801361,-0.7386232,-0.807572,-0.5506602,-0.72630817,-0.33927703,-0.578737,-0.49489066,-0.17336649,-0.23113729,-0.17144726,-0.43647924,0.051443446,-0.12504543,-0.04697529,-0.076704435,-0.20851798,-0.020061577,0.058329243,0.17851704,0.049437784,-0.018354725,-0.090846606,0.06502083,0.17909631,0
-0.20281811,-0.16549172,0.053967014,0.06651924,0.20787877,0.109292105,0.011869642,0.22209845,0.03846739,0.037027717,0.20248027,0.15874316,0.25909016,0.16417144,0.20275669,0.15926233,0.414113,0.22912073,0.42229366,0.13678415,0.4178959,0.4114788,0.3548307,0.63739794,0.80868274,0.777336,0.6675276,0.75376534,0.7437398,0.89574486,0.8068537,0.97515714,0.53910583,0.78292173,0.8628147,0.5655698,0.7981573,0.48309618,0.76543385,0.54533195,0.46427396,0.7346919,0.44943997,0.47342408,0.32849488,0.03288991,0.50458264,0.11938895,0.040198565,0.342377,0.23535337,-0.08448404,0.17872216,-0.1574644,0.17027088,0.2873936,-0.026892582,0.0068246746,0.33118773,-0.08876642,0.11733172,0.29686043,0.051075056,0.020697093,0.077936016,0.046296667,-0.1337961,0.07796687,0.1470756,0.20038903,0.26406407,0.03578286,0.6152414,0.17941022,0.4487674,0.792702,0.61503726,0.5644134,0.962488,0.78532815,1.054896,0.9884345,1.1601777,1.0630023,1.1195006,1.1199899,0.8257463,0.6848068,0.6865216,0.5781509,0.4801903,0.23759502,0.079457,-0.35840017,-0.088804126,-0.26467392,-0.5456721,-0.7765771,-0.93121445,-0.9159582,-1.0262429,-1.3519405,-1.1480846,-1.1042844,-1.0444036,-1.0508718,-0.8723962,-0.6993126,-0.88264614,-0.7222046,-0.44145605,-0.5124227,-0.5502828,-0.2994214,-0.40420073,-0.31700248,-0.5128768,-0.25332132,-0.18059923,-0.17379092,-0.20882481,-0.044660535,-0.2654864,-0.32063317,-0.16354883,-0.54561645,-0.4122325,-0.47652277,-0.63272154,-0.6735867,-0.6876091,-0.90361226,-0.9061812,-1.0184311,-0.8449953,-0.98755157,-1.0770237,-1.2228657,-1.3213326,-1.2853022,-1.3334051,-1.309786,-1.1644865,-1.3606013,-1.2041771,-1.4331121,-1.3352865,-1.471248,-1.3756257,-1.4001211,-1.3388186,-1.155539,-1.344395,-1.1595253,-1.088135,-0.9622206,-0.99972445,-1.0548401,-0.96921337,-0.68966216,-0.8368361,-0.557312,-0.71107537,-0.5597509,-0.48861283,-0.523308,-0.3882137,-0.55969536,-0.45849642,-0.29477906,-0.25647366,-0.22084586,-0.19489372,-0.25894198,-0.20710003,-0.120323464,0.12551427,-0.2592107,0.020647729,-0.06078388,0.026131565,-0.056375742,0.06831564,-0.061848313,-0.15592498,0.08043452,0
0.06783592,-0.030832486,0.23628154,0.095506005,0.04866216,-0.15807696,0.17862915,0.08064957,0.13105632,0.039245836,0.060692254,-0.10529706,0.054461885,0.06293425,-0.012567114,0.38747603,0.23286854,0.20958313,0.10682698,0.20895249,0.38401067,0.72214764,0.3867734,0.5832721,0.4206234,0.6158728,0.9133118,0.37755904,0.80133855,0.7053531,0.63613325,0.74703056,0.82071,0.6722411,0.6639199,0.7241887,0.60550857,0.5496059,0.4351156,0.620582,0.50999355,0.34584817,0.20354915,0.2536974,0.578482,0.012975021,0.24387299,0.30303732,0.19148713,0.06440326,0.16189994,-0.009975363,0.17505321,0.24384947,0.278403,0.08642646,0.18353151,0.05691832,0.25617874,0.25507832,0.11823828,0.06782442,-0.06326265,0.06763874,0.014919957,0.06661693,-0.030927317,-0.2140108,-0.15477602,0.09740526,0.3130523,0.21930203,0.7105718,0.3317056,0.27968767,0.09793018,0.74972147,0.55952233,0.45001864,0.92077965,0.7156708,1.052798,1.1970117,0.7754192,1.096051,1.022381,0.8602354,0.83212495,0.72014606,0.67111397,0.40610528,0.35221195,0.29963082,-0.28875235,-0.20333903,-0.26897594,-0.6216832,-0.80126506,-0.8969289,-0.9215871,-1.2463646,-1.023464,-0.98464423,-1.035338,-0.85516465,-0.9703927,-0.91058564,-1.0832821,-0.95166695,-0.5242222,-0.62213737,-0.4635581,-0.49657124,-0.13426605,-0.672744,-0.41035283,-0.17831755,-0.37510437,-0.4595906,-0.4157886,-0.072161674,-0.27457118,-0.22708002,-0.44169515,-0.49541873,-0.42001495,-0.3626204,-0.4378391,-0.38422242,-0.78565997,-0.7077538,-0.8948544,-0.69321525,-0.91330147,-0.8715678,-0.93637806,-1.183743,-1.2712524,-1.2327777,-1.1797183,-1.2612555,-1.3209717,-1.2962611,-1.4132706,-1.4718593,-1.1990049,-1.2292806,-1.3300781,-1.2007122,-1.2158747,-1.3106104,-1.0306952,-1.0375079,-1.0777184,-1.1484901,-1.0108589,-0.9258115,-0.9596151,-0.7950355,-0.97419435,-0.86902386,-0.7669547,-0.610014,-0.36287946,-0.23038992,-0.21485634,-0.46811065,-0.16390218,-0.4693384,-0.124409035,-0.18853652,-0.05263114,-0.06143456,-0.20185095,-0.20097654,0.083005965,-0.17246883,-0.2016974,-0.20214254,-0.053994253,-0.02404625,-0.08918057,0.018200582,-0.14768551,-0.011123423,0.110925265,0
-0.013806485,0.11008723,-0.011504037,0.10222427,0.27243745,-0.14822267,0.019144554,0.06387106,0.106228,0.070789725,0.054591138,0.3244755,0.17133759,0.45250142,0.15478079,0.2437932,0.36105412,0.3317233,0.25273252,0.44936746,0.36994687,0.41882667,0.2907871,0.4388241,0.553411,0.71568024,0.47250295,0.6217189,0.5427811,0.63840675,0.548285,0.70319986,0.5702217,0.70647115,0.5269218,0.6284575,0.7173279,0.63731587,0.51326376,0.54915416,0.5328998,0.58118075,0.20165065,0.42395657,0.2214588,0.21913035,0.22394848,0.32716435,0.23725936,0.006432052,0.047563605,0.058842454,0.27553672,0.28143272,0.25992176,0.010252738,0.16398641,-0.14561456,-0.036253333,-0.06730925,0.3362817,0.18004383,0.009120172,0.10286018,0.26673207,-0.045525596,0.13825263,-0.060788363,0.031701565,-0.03435143,0.104817405,0.23254849,0.31520537,0.19598506,0.40227196,0.6757752,0.6053125,0.6710143,0.48517114,0.75308114,0.83781034,1.0946829,0.917836,0.78019375,1.0188988,1.1000608,0.9988689,0.8573181,0.57635605,0.6237423,0.5706305,0.24045792,0.16164978,0.009333119,0.0023454144,-0.021897878,-0.5510459,-0.728077,-0.6639141,-0.80068797,-1.0539739,-1.2109975,-0.8782935,-0.8978463,-0.992953,-0.64525443,-0.8257257,-0.8424574,-0.63733435,-0.54947686,-0.47710413,-0.14960937,-0.25459448,-0.39740455,-0.42556077,-0.4119596,-0.017582007,-0.26161912,-0.126278,-0.22582357,-0.31220382,-0.2782165,-0.15217559,-0.16441599,-0.30023623,-0.5614051,-0.5729795,-0.7483144,-0.5834924,-0.48120478,-0.60869944,-0.49300417,-0.80077094,-0.6407545,-0.87058336,-0.9287017,-0.9613641,-0.91585696,-0.8191133,-1.1571805,-1.1303836,-1.0180033,-1.3963103,-1.3901311,-1.4747128,-1.2550901,-1.1037451,-1.3264556,-1.2094458,-1.2461394,-1.1800424,-1.2352664,-1.1645601,-1.1014733,-1.2134285,-0.96499246,-0.85219306,-0.7046408,-0.6758671,-0.9016498,-0.6906684,-0.58456445,-0.27314818,-0.35992783,-0.23158212,-0.38339517,-0.18760121,-0.20491436,-0.20602073,-0.13529377,-0.14853388,-0.034686316,-0.06378665,-0.1875945,-0.01140985,-0.15196617,-0.07131989,0.026432173,0.0320282,0.09947458,0.01570408,-0.039704684,-0.23019174,-0.040928073,-0.0064893626,0.052662425,0
0.24758637,-0.03971588,0.026696097,-0.031426817,-0.2794892,-0.034789722,-0.1424684,-0.3232233,-0.1742536,0.11835125,-0.14202766,-0.106053345,0.06670316,0.01562544,0.3026302,0.18382357,0.177305,0.3330418,0.34044626,0.44295773,0.23633498,0.5007686,0.34984207,0.49881047,0.5593423,0.75320214,0.6968305,0.4735416,0.69009626,0.53842604,0.73565525,0.872856,0.6945757,0.49451113,0.6163416,0.71747565,0.6037621,0.6323224,0.66252726,0.7516221,0.64440674,0.5668796,0.6321153,0.17166659,0.34502465,0.48478597,0.26874608,0.30462706,0.20421734,0.12619103,0.26233107,0.15980418,0.1089973,0.1122064,-0.120454706,-0.1854999,0.19331549,0.13991903,0.020133663,0.024097698,-0.047813293,0.14011964,0.117680244,-0.11671546,0.14537562,0.35760832,0.14132485,0.06835167,0.0785186,-0.000614146,0.10717042,0.27869678,0.17479008,0.3231777,0.5999012,0.42521623,0.61694694,1.0203422,0.56744254,0.7190713,1.0115627,0.90938187,1.1110911,1.033662,1.3246323,1.1393782,0.85788554,0.768086,1.0132289,0.6376367,0.6330479,0.23207085,0.11224653,0.065452285,-0.089622274,-0.5386551,-0.39170468,-0.43247604,-0.87701195,-1.002029,-1.0473102,-1.278135,-1.0188044,-1.0057113,-0.8818795,-0.9574582,-1.0606192,-0.8046277,-0.75456566,-0.9422307,-0.5190855,-0.47291225,-0.6064224,-0.43110812,-0.17725764,-0.31184295,-0.1783029,-0.17949772,-0.3490992,-0.39132556,-0.41617674,-0.2805311,-0.33384895,-0.49102888,-0.3815882,-0.41576764,-0.33380467,-0.18856536,-0.42076954,-0.44176778,-0.6863209,-0.71096444,-0.9132677,-0.7416273,-1.1911298,-1.210752,-0.9896343,-1.2636205,-1.1104207,-1.1104003,-1.4309534,-1.4725797,-1.3690242,-1.2826939,-1.4310707,-1.4729524,-1.158006,-1.1679549,-1.0167162,-1.3948559,-1.4594223,-1.1099592,-1.1908835,-1.1453661,-1.0820719,-1.0088549,-1.0414919,-0.915947,-0.8384314,-0.7129153,-0.5620589,-0.5609475,-0.69597095,-0.6560533,-0.52938855,-0.4214006,-0.2519771,-0.28563562,-0.264376,-0.05935924,-0.20361803,-0.25719622,-0.12852597,-0.1559818,-0.19976734,-0.27956018,-0.2483554,-0.106031336,0.12847652,0.14683366,0.08190693,0.003983072,-0.10126036,0.006293804,-0.16239703,-0.102402404,0
-0.039428733,0.005198375,-0.21126741,-0.020811701,0.09964403,-0.123164475,0.017105497,0.0043661543,0.008297628,-0.080116,0.051569153,0.1289201,0.08726704,0.16045946,0.25795618,0.046410926,0.050541423,0.34895846,0.25209165,0.48949698,0.4848657,0.3281462,0.73607314,0.43967864,0.71126765,0.92417216,0.5525025,0.62683046,0.48805907,0.7279145,0.59889156,0.85703677,0.5308813,0.59857816,0.9011402,0.92419255,0.5484536,0.41203746,0.72207004,0.5739891,0.59030634,0.52084935,0.39280328,0.50137347,0.527964,0.20684429,0.15718518,0.14472105,0.06847096,0.3017918,0.013358254,-0.08413794,-0.10807701,0.087895535,-0.050440237,0.13943549,0.14783894,-0.11069879,0.118193,-0.17661004,-0.02076641,-0.17421211,0.17421992,0.20076834,-0.06315013,0.032658543,-0.08569989,0.087888986,0.19828798,-0.03934796,0.34655336,0.37982294,0.17496935,0.36374596,0.50468785,0.2626017,0.9513629,0.717684,0.61284727,1.0438453,0.82171077,1.0682594,1.0039349,1.054138,1.1681446,0.9202643,0.9490413,0.6820151,0.74463636,0.67833114,0.57906955,0.2731013,0.13612397,-0.20771047,-0.47211036,-0.43800247,-0.6871939,-0.85206693,-0.97588956,-1.0630857,-0.9848369,-1.040696,-1.0563916,-1.1478977,-1.1109105,-0.852049,-0.8227225,-0.74970186,-0.7060452,-0.42828757,-0.31962854,-0.5566244,-0.26328442,-0.43836254,-0.5332236,-0.335794,0.009142657,-0.23375855,-0.007787486,-0.09287393,-0.30779618,-0.10235869,-0.3444439,-0.3725053,-0.20359495,-0.23310103,-0.40991902,-0.30879918,-0.5853223,-0.5017528,-0.7851726,-0.76791936,-0.91525686,-0.80779934,-0.9736315,-0.92401564,-1.1106037,-0.8249272,-1.0625367,-1.2775958,-1.2641971,-1.3046173,-1.2561035,-1.3350569,-1.1970115,-1.4724079,-1.2080488,-1.2300335,-1.434531,-1.1815199,-1.4047303,-1.2113717,-1.0222559,-1.2626117,-1.0409786,-0.83542085,-0.7947537,-0.9038745,-0.9765473,-0.98109466,-0.58087033,-0.70187896,-0.3075171,-0.44519824,-0.33845967,-0.41928354,-0.45323175,-0.18841565,-0.2539741,0.030809319,-0.23681714,-0.2707828,-0.21735202,-0.1360072,-0.22330573,-0.1645895,0.043239783,0.016106583,0.18211058,-0.055969223,0.1993903,0.011899433,-0.05484256,0.23514868,-0.055281483,-0.09919153,0
0.095816396,0.14916165,0.17250952,-0.18058038,-0.09692391,0.16316865,-0.20261906,0.03601146,-0.095674485,-0.17965052,0.257887,0.019718193,0.1857042,-0.024378588,0.24071434,0.30002308,0.052624643,0.17625746,0.053850237,0.3645446,0.15418352,0.5287447,0.53326243,0.6215055,0.7115655,0.5349478,0.69512004,0.4877344,0.7922085,0.45608222,0.7063854,0.630191,0.67215985,0.92325884,0.76733947,0.89748,0.6514878,0.8565079,0.6671657,0.51875144,0.5959315,0.4956396,0.4962895,0.46461236,0.23622203,0.18600635,0.24665056,0.15378018,0.13487801,0.08605984,0.035159923,0.30793467,0.28154883,-0.03491721,0.0017871878,-0.009690948,0.111518376,0.12150539,-0.11473853,0.025700606,0.14817598,-0.2919363,-0.119298704,0.13617562,0.1820388,0.1637664,-0.042599387,0.12045053,0.29497778,0.031915274,0.13200133,0.30360046,0.39118934,0.15216522,0.33634958,0.5623277,0.48592058,0.78398764,0.7476959,0.8178484,0.7007262,0.96765643,0.9134899,0.9147304,0.6233946,1.0153148,1.0782669,1.0958412,0.94092107,0.48541227,0.69094723,0.08625817,0.30215907,-0.10574716,-0.3596071,-0.20933147,-0.67811525,-0.8433263,-0.87655,-0.70255536,-1.0251688,-0.8467123,-0.9970376,-0.80828613,-0.8266861,-1.1068448,-0.75814164,-0.71968466,-0.8234887,-0.478483,-0.49009755,-0.141015,-0.4949657,-0.23372154,-0.30024326,-0.118843675,-0.39998382,-0.1576556,-0.13455334,-0.3047174,-0.3697063,-0.23509653,-0.3296001,-0.18131757,-0.5348737,-0.18932709,-0.39389545,-0.47114423,-0.6384508,-0.69320333,-0.46143642,-0.74590206,-0.70198655,-1.0302637,-0.737906,-0.94714475,-1.0270668,-1.0522804,-1.0033104,-1.0913421,-1.0525888,-1.1195213,-1.2056916,-1.4738253,-1.3059291,-1.1493894,-1.342999,-1.1058618,-1.2987611,-1.1623929,-1.1707495,-1.1386298,-0.96618384,-1.2140995,-0.8380645,-0.7553047,-0.729925,-0.55958337,-0.92274565,-0.63971347,-0.86990184,-0.37728852,-0.72890085,-0.5598158,-0.32631055,-0.38701203,-0.48950022,-0.3334908,-0.24359839,-0.23789522,-0.24828786,-0.10626753,-0.19662933,-0.101061136,-0.14153229,-0.15536614,-0.057454124,0.09883421,-0.04363888,-0.034163147,-0.25767705,-0.06260614,-0.030869097,0.044899844,-0.0059076464,0.039149515,0
0.023827048,0.1112695,0.046019822,-0.13072084,-0.06148304,0.18343075,-0.087067954,0.16738318,0.02146832,0.15508255,0.06371178,0.10205543,0.1336429,0.1998938,0.2614084,0.23211844,-0.031053238,0.074973434,0.2594276,0.2592568,0.48487744,0.5338632,0.6708119,0.4471245,0.36514813,0.4084435,0.4678808,0.5550831,0.5522942,0.6252123,0.46144077,0.68447345,0.5092463,0.63369757,0.6405256,0.5548717,0.7186449,0.43691996,0.4080449,0.49616268,0.5786469,0.22460207,0.21927269,0.36932588,0.27885965,0.3593199,0.14659134,0.107388,0.2878714,0.11999549,0.21996169,0.08826519,0.013522382,-0.06938447,0.21588954,-0.06633752,0.008776182,0.08129241,0.009372762,-0.2958446,0.05505078,0.13288914,0.118621975,0.1664678,0.20533839,0.32950938,0.06841066,0.10955559,0.09157341,0.3170966,0.1552587,0.29572818,0.20448701,0.40282914,0.43566447,0.3859616,0.39032358,0.42611837,0.7473926,0.70768803,0.8014584,1.0153121,0.7343664,0.7568998,0.9477248,0.9681555,0.932421,0.940487,0.6204445,0.4344901,0.45925292,0.13270752,0.06688205,-0.23465751,-0.2967156,-0.4142142,-0.6196925,-0.7530369,-0.8996944,-0.8958798,-0.9113482,-0.8989978,-0.8212397,-0.7955197,-0.80564874,-0.7429825,-0.8940756,-0.8277828,-0.87574476,-0.5954553,-0.46100715,-0.47851726,-0.25856876,-0.46648657,-0.4586894,-0.39452738,-0.1579445,-0.120980136,-0.28710058,-0.17749174,-0.2954761,-0.33426645,-0.3939949,-0.34606448,-0.33820814,-0.2720788,-0.43443248,-0.57254994,-0.39919943,-0.47030953,-0.51386553,-0.5955249,-0.75089407,-0.71343994,-0.8417333,-0.78249055,-1.2336086,-0.8709023,-0.9264065,-0.9915944,-1.1514263,-1.3539722,-1.310388,-1.1066213,-0.97417617,-1.1922228,-1.2624141,-1.4759382,-1.1703844,-1.3517121,-0.96551836,-1.1805727,-0.9796612,-0.9546382,-0.9096895,-1.2004132,-0.81711334,-0.65303534,-0.72286403,-0.66092646,-0.87656355,-0.42102844,-0.50284207,-0.5080662,-0.18993506,-0.36212462,-0.58060324,-0.26767427,-0.265783,-0.14951979,-0.13570374,-0.08506076,-0.29464218,-0.24665664,-0.0859497,-0.066432044,-0.15444718,-0.18356454,-0.05808644,-0.0032991997,0.19743247,0.00047575947,-0.07525808,0.051178277,-0.21895196,-0.1503745,0
-0.049668096,-0.106371015,0.08622498,-0.048837364,0.19677289,-0.18455936,-0.07990825,-0.07960028,-0.019600617,0.1873226,-0.08727647,0.021219485,0.33647072,0.032257166,-0.025660332,0.031471517,0.2675491,0.14900133,0.3441861,0.5332573,0.43448448,0.33827654,0.5958043,0.5735996,0.46710837,0.2656621,0.5823818,0.6849151,0.56923896,0.60010666,0.8218173,0.7005574,0.9303966,0.67503065,0.79747725,0.6595314,0.6595411,0.49059206,0.40866673,0.55149984,0.64276963,0.553008,0.37646535,0.41623712,0.24101208,0.34096155,0.48932716,0.01284979,0.040319826,0.05967714,0.3223277,0.22424717,0.013504414,-0.038599003,-0.07932595,0.09693248,0.10671058,0.24149825,0.21631001,-0.08736145,-0.06433831,0.091207765,-0.035298493,-0.111768715,-0.19818512,0.34368774,0.024008907,0.113036744,0.23269176,0.31570977,-0.046255212,0.37583667,0.2806365,0.4441647,0.43632054,0.3949106,0.73732466,0.7377263,0.6277577,0.84323,1.0180436,0.98639613,1.0002813,1.0706905,0.97683996,1.150371,1.0229738,1.0287699,0.8103262,0.5686653,0.25086823,0.12997326,0.26390615,-0.068730466,-0.32388568,-0.3921761,-0.4677254,-0.9216269,-0.83208716,-0.88114035,-1.0740559,-1.2097526,-1.046336,-1.1420451,-0.9382188,-0.9683671,-0.8064659,-0.68449247,-0.66054684,-0.81745625,-0.54409754,-0.31740713,-0.29616088,-0.3338549,-0.4453144,-0.2815872,-0.31081474,-0.49764094,-0.05940204,-0.28465915,-0.30922645,-0.2964082,-0.3757642,-0.2054613,-0.28030625,-0.393004,-0.30848083,-0.37794235,-0.718076,-0.43920863,-0.5941809,-0.66365,-0.68281245,-0.96625715,-0.6821496,-1.0224421,-1.0251362,-1.1894987,-0.90349966,-1.0228164,-1.0189861,-1.0797689,-1.3992908,-1.3743746,-1.1422441,-1.2211637,-1.2569729,-1.2952039,-1.4735377,-1.161721,-1.163987,-1.3465412,-1.2027949,-1.3940859,-1.0902648,-1.0816532,-0.8896166,-0.6173623,-0.92687106,-0.6745406,-0.7220158,-0.56048346,-0.42074892,-0.4756673,-0.104907565,-0.16153,-0.5106432,-0.32371157,-0.14974394,-0.32226476,0.0035750843,-0.18968706,-0.03581973,-0.09499978,0.12644967,-0.014330726,0.0009899444,0.075600244,-0.09866942,-0.05554211,-0.008674893,0.0142249,-0.20752834,-0.15883124,0.08027921,-0.15172936,0
-0.028958103,0.09950507,-0.25488776,0.17945111,-0.07773391,-0.08266363,-0.0054871268,-0.0991016,-0.15564682,0.016600633,0.2720238,0.045599006,0.28176627,0.11026848,0.27984306,0.13096048,0.32675898,0.20661303,0.23627484,0.10258691,0.30143157,0.48553953,0.40591338,0.2611696,0.50867164,0.42652303,0.4872214,0.34918657,0.6867963,0.73535234,0.66470754,0.2901836,0.3653538,0.6762637,0.49070013,0.7770737,0.6275038,0.68215334,0.48164725,0.88107854,0.5587857,0.292098,0.42653748,0.2011438,0.39247724,0.4782433,0.18354219,0.46391717,0.27548796,0.04485664,0.39176038,0.007863312,-0.0019214568,0.20660403,0.043485597,0.1365506,0.03259377,0.053488564,-0.026194282,0.023964472,0.12821819,0.041395802,0.023996962,-0.024089321,0.14297372,0.2564922,0.03059248,0.2633744,0.029741483,0.21931481,0.14452782,-0.04889451,0.40338954,0.3180311,0.39748746,0.36955595,0.39941087,0.6140287,0.71231806,0.6234557,0.888941,0.91271764,0.8032799,0.8242289,0.9178285,0.75268483,0.5578423,0.94510055,0.42725182,0.49985307,0.5986645,0.33148327,0.1175244,0.04884112,-0.14477903,-0.31472647,-0.50755113,-0.73322904,-0.9708683,-0.648703,-0.8554891,-0.8283207,-1.004686,-0.908503,-1.0445855,-0.6162562,-0.65907925,-0.72409064,-0.52725047,-0.7335953,-0.56250316,-0.5092648,-0.34653214,-0.3992104,-0.29209077,-0.3714633,-0.14329913,-0.4087986,-0.2895456,-0.0023317744,-0.27752027,-0.002106696,-0.13541545,-0.3443087,-0.27537698,-0.40992472,-0.4483256,-0.4730045,-0.4558124,-0.7030396,-0.57676566,-0.5046099,-0.8062134,-0.9701032,-0.88981193,-0.8437252,-0.8629269,-0.9925115,-0.99119866,-1.0238708,-1.2041665,-1.4753618,-1.3467921,-1.1308604,-1.214486,-1.2293278,-1.0234563,-1.2390314,-1.2856427,-1.0433406,-1.0719545,-0.94792193,-1.0857542,-1.0016359,-1.122158,-0.8384301,-0.9776312,-0.63153,-0.8879767,-0.58303314,-0.67968434,-0.5142793,-0.50869644,-0.2899968,-0.591706,-0.6610477,-0.49894026,-0.4845071,-0.13593964,-0.28563914,-0.23364636,-0.047376484,-0.37872538,-0.18175028,-0.35041672,-0.15931538,0.04876295,-0.106065616,-0.09425447,0.0481686,-0.10817847,0.091902874,-0.08970007,-0.055572715,-0.049938735,-0.041824948,0
0.29769695,-0.12056464,0.28617686,-0.26928902,-0.30447873,0.20000252,0.13562176,0.3070663,0.27922922,0.18190992,-0.0318437,-0.061224315,0.04798853,0.29649213,0.2555058,0.13427989,0.16555817,0.2572358,0.27785736,0.24997215,0.62364805,0.34824434,0.4446023,0.4045303,0.42739794,0.72379583,0.48895684,0.57351786,0.7212316,0.6990028,0.72487557,0.40430275,0.7525394,0.7603625,0.6951651,0.5822407,0.6521038,0.53817284,0.4037898,0.615124,0.17182127,0.6375952,0.53578985,0.46888793,0.42183352,0.23590118,0.25912094,0.3891264,0.19246563,0.20076092,0.057428956,0.23455606,0.069208816,-0.055063438,0.17930143,0.032611545,0.18187696,-0.11130209,-0.23571175,0.058753632,-0.048134893,0.1603015,-0.043425154,-0.14955908,0.13525838,0.03119536,-0.15379214,0.35131308,0.19545297,0.38921145,0.35687286,0.19029675,0.31316918,0.06729338,0.5228999,0.5810037,0.6583825,0.7524939,0.80249625,0.8546966,0.84316957,1.0187789,1.0733441,0.92619956,0.9011503,1.0523345,0.9835311,0.96343935,0.71900684,0.5977855,0.40605342,0.31715465,0.18815467,-0.016031623,-0.40540755,-0.4874822,-0.68710196,-0.8617266,-0.91536397,-0.8890833,-0.79134184,-1.1405196,-0.95072186,-0.873065,-1.0462896,-1.0959864,-0.7665782,-0.42129487,-0.8741942,-0.51825124,-0.52930343,-0.32932258,-0.5251234,-0.5841227,-0.37637597,-0.41630694,-0.14523585,-0.45652777,-0.15156311,-0.34289908,-0.2168709,-0.37994885,-0.22212493,-0.45390466,-0.46172887,-0.637948,-0.25263342,-0.54000527,-0.5608609,-0.7107081,-0.5678735,-0.6512281,-0.72792524,-1.0057704,-0.825351,-0.985553,-1.1551256,-1.0624568,-1.2138369,-1.1722373,-1.1571795,-1.361302,-1.1256121,-1.2679325,-1.0535185,-1.3296516,-0.9119695,-0.9930528,-1.2925478,-1.038084,-1.1347114,-1.4727168,-1.2456686,-0.9808069,-0.89085877,-0.94676095,-0.9680429,-0.8887345,-1.069591,-0.53733206,-0.41337872,-0.35774627,-0.6599108,-0.67461497,-0.37660232,-0.5381517,-0.14658076,-0.3646823,-0.2584847,-0.19310853,-0.2704031,-0.054578688,-0.07774612,-0.39072266,-0.1230855,-0.12170102,0.03074385,-0.16916843,-0.039261658,-0.085405506,-0.1021804,-0.09922306,0.0032179048,0.2253597,0.027674722,0.1919065,0
-0.059158683,-0.08098761,-0.16791505,-0.15743238,-0.012550332,0.06401143,0.1917721,-0.060366064,0.18411542,-0.08263242,0.057554796,0.047301307,0.3649382,0.3403404,0.18138161,0.20415938,0.3418079,0.1170724,0.3560243,0.3511585,0.48561022,0.5037653,0.3745557,0.55295175,0.49359694,0.5669654,0.70944005,0.7412502,0.7826759,0.9205197,0.7150623,0.63825107,0.6552544,0.842173,0.657441,0.73213375,0.81134576,0.3264104,0.41135558,0.7973247,0.6721967,0.2750576,0.35254094,0.45254135,0.27688268,0.41034928,0.26421842,0.2380581,0.27105498,0.24551274,0.23841573,0.15459159,0.2031792,0.2225697,0.07708934,0.304549,-0.025128605,0.19922967,0.11160903,-0.15907733,0.12975708,-0.068892606,-0.26981035,0.25292554,0.040149268,0.09131134,0.1914879,0.16814017,0.20865192,0.1931318,0.17119978,0.11242,0.35822535,0.2157748,0.33043432,0.4209783,0.6620858,0.8216023,0.77198863,1.0066035,0.8075488,0.9357681,0.7602958,1.2640222,0.9064255,0.98128796,0.8637864,0.83862376,0.8155046,0.7589931,0.42293632,0.52767396,0.024032602,-0.1895048,-0.0763595,-0.2991222,-0.6006488,-0.81186944,-1.1205003,-0.8878282,-0.9410092,-1.2100583,-1.2120001,-0.9551364,-0.79712284,-1.0168933,-1.160069,-0.79513484,-0.7790875,-0.44553074,-0.5004944,-0.30359805,-0.34352824,-0.19372249,-0.52850217,-0.45444676,-0.20771298,-0.4078863,-0.16814125,-0.45089537,-0.11400639,-0.1846773,-0.27450967,-0.34181488,-0.19530542,-0.36949426,-0.6081841,-0.49314353,-0.42363343,-0.54954475,-0.72861135,-0.85246634,-0.8997736,-0.97091126,-0.96936035,-0.923929,-1.1210834,-1.472054,-1.2577544,-0.8518477,-1.110618,-1.2918385,-1.1296281,-1.2927345,-1.0384576,-1.1944071,-1.3686863,-1.2192347,-1.1814631,-1.1936879,-1.2396505,-1.1854178,-1.1113466,-1.3856235,-1.1082389,-1.102069,-0.90440077,-1.0829461,-0.93343735,-0.78631955,-0.43986636,-0.71416694,-0.71063024,-0.33397326,-0.47617072,-0.4028826,-0.38165,-0.28992045,-0.21937409,-0.30506864,-0.19852012,0.036086388,-0.17591244,-0.29732114,-0.1704503,-0.27765965,0.0727515,0.01797903,-0.22892238,0.028522182,-0.1444716,-0.14296602,0.1531089,0.01970277,-0.2139731,-0.11374168,0
-0.116513945,0.105747655,-0.035353098,-0.12395746,-0.15141575,0.01464607,0.10791403,0.062053077,0.015464891,0.1437036,-0.15796752,0.048333872,-0.18775582,0.26462206,0.23478398,0.16686103,-0.047589667,0.33210802,0.4893673,0.2055441,0.34853706,0.43959248,0.4469568,0.22053944,0.846595,0.51132005,0.4278,0.6483684,0.19401048,0.40612143,0.8890838,0.77247,0.86786216,0.64742124,0.58775806,0.53626764,0.888922,0.5909035,0.67005026,0.7096982,0.54530835,0.49995834,0.52265155,0.7345488,0.37887976,0.18565291,0.55026937,0.09377116,-0.02040299,0.35966998,0.25797194,0.14652038,0.19866537,0.10553382,0.051433846,0.1475554,-0.0072218324,0.080829754,-0.008044745,-0.07068962,-0.07408304,-0.015130338,-0.0052507706,0.045435533,0.02140268,-0.09743214,0.061705496,-0.0027113536,0.1793699,0.14013095,0.30583265,0.16164528,0.3555828,0.26711217,0.39956912,0.43399918,0.8341741,0.8715947,0.9119664,0.943334,0.8229155,1.1097434,0.9851882,1.179305,1.1370449,0.8501169,0.7707638,0.91178066,0.91159934,0.62919694,0.5502149,0.39542434,-0.035766654,-0.3235334,-0.32592064,-0.3457856,-0.6071633,-0.43997896,-0.9774468,-1.3144213,-0.91877466,-1.2128067,-0.8827151,-1.179277,-0.90040284,-0.9260476,-0.9439143,-0.6342059,-0.83119196,-0.8368814,-0.49527255,-0.5462158,-0.32414365,-0.29700255,-0.30298084,-0.4527963,0.042174846,-0.20603643,0.24035203,-0.2833136,-0.11422329,-0.29617065,-0.1178022,-0.31290472,-0.520236,-0.5811753,-0.2920787,-0.6508888,-0.62224716,-0.7880092,-0.8541181,-0.5402159,-0.78885174,-0.7836439,-0.768417,-1.2372644,-0.73867923,-0.8950385,-1.1064717,-1.031028,-1.277959,-1.2337762,-1.1873512,-1.4730248,-1.1142899,-1.3816191,-1.306248,-1.4117357,-1.149414,-1.1844994,-1.3491443,-1.280136,-1.2475711,-1.1395165,-1.0068591,-1.0486249,-1.0591993,-0.7894278,-0.9388676,-0.51965415,-0.8451762,-0.5613531,-0.1536167,-0.38149405,-0.43700054,-0.1883671,-0.35635337,-0.2457935,-0.15862198,-0.24429522,-0.17493674,-0.24739005,0.0128035145,-0.115484916,0.0019977102,-0.18333131,-0.20869222,-0.0630734,-0.042740535,-0.19095726,0.004711377,-0.034037333,-0.10772062,-0.023209462,0.18115216,-0.0055757696,0
-0.003874843,0.09077666,0.26298484,0.31152055,0.102401465,0.06599081,0.011372213,-0.106686,-0.14568841,-0.13586909,0.041494567,0.06526887,0.14615265,-0.081742644,0.37743017,0.18643965,0.47586527,0.13142668,0.190724,0.51037216,0.6166507,0.1268372,0.65851027,0.29843605,0.71992075,0.42137614,0.55902356,0.32781968,0.7578499,0.8260737,0.9536009,0.8218691,0.7216925,0.62436634,0.57770824,0.6842836,0.67053396,0.7667623,0.36930183,0.3717712,0.5369443,0.59825903,0.24632333,-0.081263624,0.42562285,0.35959145,0.2238838,-0.13939328,0.14498715,0.21292666,0.10323713,0.09160696,0.17008999,0.10947993,0.21514264,-0.06388648,0.122629285,0.15111743,0.016010415,0.15695103,-0.0010106615,0.0981753,-0.061108198,-0.0022512916,-0.12479859,0.16140637,0.15818818,-0.19561851,0.21425864,0.09011087,0.288601,0.4160998,0.29684922,0.2923421,0.40233177,0.6332599,0.67254084,0.5888341,0.59563166,0.9232513,0.98051244,1.1078659,1.0059713,0.9795716,0.91965467,0.93308854,0.89800316,0.6989796,0.6657894,0.63894516,0.52902305,0.46120474,0.08007437,-0.29312593,-0.11986251,-0.54814595,-0.93729675,-0.7417249,-0.96229935,-1.1177756,-1.1321833,-1.094016,-0.9719906,-0.842281,-1.066419,-0.8926436,-0.7338003,-0.73512655,-0.60723996,-0.47556388,-0.6294924,-0.48168442,-0.44580057,-0.2731614,-0.45112577,-0.42276582,-0.23287696,-0.0634459,-0.33081168,-0.2701831,-0.097951554,-0.33813122,-0.21277398,-0.13216658,-0.40086097,-0.32747483,-0.37092495,-0.49806798,-0.66923237,-0.4934611,-0.76153195,-0.92571527,-0.9332322,-0.8543715,-1.0713083,-0.757629,-1.0593672,-1.2353116,-1.1260413,-1.30863,-1.2996054,-1.2408973,-1.432109,-1.3036922,-1.4320763,-1.1348121,-1.4388546,-1.4721878,-1.387211,-1.1989021,-1.1087729,-1.2673291,-1.3653655,-0.9903026,-1.1661358,-1.2427316,-1.0365222,-1.0807235,-0.82511765,-0.85174143,-0.69807214,-0.8319663,-0.39952257,-0.54128873,-0.51333636,-0.30122998,-0.5504292,-0.5956421,-0.42902458,-0.2232895,-0.2956226,-0.03929324,0.22321978,-0.1281431,-0.06602881,-0.038648643,-0.132078,-0.08949142,-0.41221327,-0.052518096,0.15011546,-0.15907393,0.10770044,-0.01428665,-0.122255646,0.35067004,0
0.08885409,-0.19826871,0.04801688,0.05339085,0.17771204,-0.06976655,0.11795505,-0.10127592,-0.18844514,-0.071747825,-0.18242648,0.19633353,0.3854588,0.27684984,0.27590552,0.31890178,0.100403674,0.25220236,0.2542422,0.33325395,0.40720397,0.6199136,0.35281956,0.45946652,0.46075293,0.6150771,0.6984085,0.6355776,0.73243016,0.73598,0.6157591,0.52079517,0.55594015,0.6485498,0.58298767,0.46931222,0.6242043,0.37213996,0.5779916,0.5575097,0.41072327,0.5820636,0.5188037,0.41955525,0.20609368,0.46276367,0.3539522,0.11001655,0.31264728,0.17765956,0.15521438,0.16438214,0.05381891,0.028317807,0.060375016,0.18970738,-0.018899648,0.38910094,0.074359134,0.0011007256,0.24582383,0.09394074,0.28459045,0.18239488,-0.06740972,0.3103384,-0.1627365,0.15589093,0.2067501,0.20799863,0.10315885,0.38872945,0.30719876,0.32162425,0.5999624,0.48302618,0.58192027,0.57089204,0.9355691,0.69897056,0.79871744,0.8883552,0.98669916,0.9470066,1.206899,1.0310279,1.2227054,0.8305507,0.83474374,0.37297878,0.5134294,0.2243649,-0.007875112,-0.030310603,-0.10829458,-0.4861737,-0.6662953,-0.79167074,-0.8163012,-0.7079809,-1.2426178,-0.9460349,-1.2894424,-1.1312828,-0.97804725,-0.91992456,-0.6672839,-0.7667819,-0.6794325,-0.5813776,-0.8919786,-0.2971906,-0.25901833,-0.5908777,-0.22459115,-0.27321282,-0.12697004,0.02386309,-0.24947767,-0.11521387,-0.006684353,-0.26675296,-0.40826932,-0.26056147,-0.5534618,-0.52766955,-0.47289586,-0.5973278,-0.6594437,-0.6078485,-0.590433,-0.5962855,-0.60413134,-0.7609042,-1.2175454,-0.79795456,-1.0539867,-1.0925024,-1.0585927,-1.0846438,-0.90979975,-1.4731998,-1.33507,-1.1932119,-1.2824577,-1.2583312,-1.3538013,-1.2469047,-1.2470176,-1.0863265,-1.3092691,-1.1146733,-1.1527766,-1.0771611,-0.9604919,-1.0031084,-0.84763396,-0.73043334,-0.74909025,-0.64531916,-0.6799261,-0.6087073,-0.7420338,-0.50676227,-0.4591214,-0.18982205,-0.43201575,-0.35919997,-0.40457666,0.022178767,-0.016855508,-0.1539077,-0.03992642,-0.26420584,-0.22951354,0.023265343,-0.15399797,-0.056458395,0.031607036,-0.1693332,-0.12985325,-0.06568112,0.10693972,-0.1864869,0.10107078,0.015639829,0
-0.16472504,0.02196006,0.18235365,0.14600235,-0.1251603,-0.11151968,-0.10411134,-0.04074846,-0.002585537,0.17491962,-0.0050409036,0.22641063,-0.042001523,-0.06104307,0.048585813,-0.033932958,0.43790308,0.22730918,0.23198831,0.3953147,0.55273664,0.3133411,0.29051313,0.42254418,0.47661868,0.47108522,0.44086674,0.6767033,0.5188564,0.7169513,0.7183648,0.77006274,0.4629093,0.7106824,0.8786958,0.71226764,0.48994672,0.59536535,0.6128599,0.48943853,0.6528844,0.599337,0.5794077,0.3647682,0.41201577,0.37752894,0.4162596,0.072926626,0.16088903,0.26463223,-0.034961123,0.029867133,0.22930817,0.002024046,0.25412226,0.02133009,-0.17243817,0.12158041,-0.09214054,-0.11035273,-0.07950642,0.005051878,-0.10388342,0.12754492,0.072484195,0.010582723,0.107208505,0.06814145,0.32729867,0.09323199,0.036616746,0.16974013,0.12998725,0.17905475,0.25633147,0.28759912,0.5064587,0.74554867,0.7342692,0.725151,0.87158424,1.0228863,0.7964985,0.91067713,0.8714815,0.8393107,0.8806491,0.81149703,0.65296483,0.40950817,0.30145136,0.3072383,0.08111438,-0.12469518,-0.020111652,-0.21522635,-0.6506521,-0.50435066,-0.7936969,-0.5752878,-1.0739433,-0.8310697,-1.107682,-0.7473243,-1.0130916,-0.99625903,-0.979237,-0.70604783,-0.80643785,-0.7973837,-0.62308526,-0.28907323,-0.24310273,-0.62057006,-0.009285391,-0.12071659,-0.23638259,-0.2583649,-0.06800528,-0.49322268,-0.24240933,-0.2400601,-0.1548818,-0.3373896,-0.49367246,-0.44584963,-0.41500297,-0.39859116,-0.54168797,-0.2941845,-0.58186305,-0.53684473,-0.70709306,-0.81524503,-0.90938705,-1.1565396,-1.118127,-1.0348623,-1.1310726,-1.2488574,-1.2094463,-1.2394944,-1.3785287,-1.347588,-1.4416425,-1.1903776,-1.3198236,-1.3266428,-1.0234708,-1.474139,-1.0178169,-1.0933832,-1.1371721,-0.8747215,-1.1612643,-1.145599,-0.94500303,-0.6655643,-0.80003834,-0.6417002,-0.7548441,-0.8169823,-0.63923657,-0.6203289,-0.35513026,-0.47035447,-0.3984069,-0.2799524,-0.44042113,-0.2883739,-0.34856597,-0.067632124,-0.21451075,0.11961089,0.0016422597,-0.24156605,-0.0050635366,0.08686612,-0.058253303,0.13562116,0.090883225,0.21095796,-0.15628815,-0.08504544,0.09092023,-0.0078072697,0
0.021161545,-0.04135556,0.29992267,0.06694406,-0.11868818,0.05089841,-0.10780509,-0.08371015,0.07137713,0.052328527,-0.00865278,-0.03519353,0.08225949,0.34224653,0.09858012,0.25892013,0.29397205,0.1284544,0.30574602,0.18460724,0.32990217,0.44902152,0.20891672,0.43927285,0.44038507,0.3711215,0.59455514,0.7566447,0.86185014,0.7525288,0.7447767,0.7885298,0.56714135,0.752524,0.8969455,0.8252816,0.79405767,0.5245461,0.77402306,0.4796566,0.3899756,0.70154667,0.447938,0.511445,0.398046,0.2918485,0.5818732,0.03822948,0.34463206,0.025539447,0.0068921074,0.20860095,8.073544e-05,-0.031677805,0.15379623,0.20686571,0.015969997,0.01190208,0.031494007,-0.028702326,-0.077336326,0.06701079,0.33482903,0.24256863,-0.06443306,0.14892448,0.11994666,0.28339824,0.34245387,0.04492596,0.477609,0.13158105,0.34562176,0.4219481,0.30528712,0.5060641,0.49923298,0.89020485,0.7342064,1.013883,1.002862,1.1879184,1.0188823,1.2439854,0.9132433,1.082224,1.3298309,1.0108714,0.7124391,0.60488755,0.4605491,0.46842283,0.12624803,-0.19642173,-0.4595934,-0.6428392,-0.5852824,-0.61876935,-0.82483166,-0.8193343,-0.93533313,-0.9817878,-0.97563356,-1.0956798,-1.1573055,-1.0558053,-0.7041798,-0.8754952,-0.9047403,-0.7124055,-0.60063434,-0.24213773,-0.31330413,-0.25777212,-0.49912015,-0.33583802,-0.30571967,-0.00018670941,-0.21593052,0.048576288,-0.3314709,-0.043202173,-0.068462744,-0.26330248,-0.4488941,-0.43513784,-0.4424161,-0.585841,-0.5153805,-0.64087355,-0.6277042,-0.739277,-0.84228224,-0.7794071,-0.9326009,-1.0804832,-1.3336383,-0.8996382,-0.95224506,-1.1102835,-1.1289743,-1.215844,-1.3235455,-1.2179439,-1.3623474,-1.2460412,-1.2202277,-1.4679056,-1.4707782,-1.2106148,-1.4339279,-1.2889445,-1.4081827,-1.0072851,-1.1744186,-1.1407924,-0.9997534,-1.0075055,-1.0133889,-0.9561067,-0.7438047,-0.7581883,-0.47689766,-0.8315942,-0.47516215,-0.22626767,-0.47398496,-0.16316442,-0.15913783,-0.39214104,-0.12609863,-0.17076285,-0.2451327,-0.07258113,0.010865536,-0.14015076,-0.11270495,0.0952883,-0.085981034,-0.030338213,0.102314346,0.21935216,0.0663071,-0.08776704,-0.18866648,0.13816531,0
0.07305205,0.2143946,0.34786114,0.027244747,0.002185113,0.079995014,-0.039239917,0.042418327,0.11644728,0.1732937,-0.026014755,0.4132165,0.081045814,0.02484083,0.16621186,0.31548643,0.24931262,0.16904126,0.20534085,0.2637796,0.41679487,0.48683062,0.60910594,0.4786788,0.603015,0.34933093,0.5422287,0.5286373,0.6651612,0.73456544,0.9547311,0.5497778,0.6939671,0.5264029,0.89234793,0.5824655,0.4897367,0.83920157,0.5536258,0.45754838,0.44420823,0.5673258,0.4585864,0.61954165,0.36334512,0.44583276,-0.09432401,0.27813813,0.14444132,0.07922231,0.03607512,0.12407106,0.17569856,-0.11212157,0.23255752,-0.350292,0.22678319,0.14882284,0.2755466,0.030378684,-0.38278213,0.2306347,-0.008657117,0.12838304,0.16257766,0.08145796,0.2588074,-0.007491038,-0.15428789,0.19749974,0.37681198,0.17911814,0.40346116,0.3637412,0.5142549,0.67410713,0.7354977,0.7960572,0.70151865,0.7733406,0.7899266,1.1391401,0.98036754,0.95891106,0.8985473,0.93579674,0.970073,0.92386246,0.65935737,0.43468088,0.3732396,0.22582686,-0.13627419,0.109503016,-0.37522575,-0.73107743,-0.7911203,-0.6768442,-1.0789766,-0.85113543,-1.0331663,-0.9666455,-1.0755571,-1.0438484,-0.78987086,-0.98613536,-1.0775661,-0.86083794,-0.6315417,-0.40683085,-0.58211803,-0.6009729,-0.21206117,-0.41136393,-0.038096804,-0.48719534,-0.32992613,-0.25570774,-0.47650895,-0.09105965,-0.3407476,-0.28250217,-0.22064002,0.062459197,-0.28625312,-0.50586015,-0.50240225,-0.5373785,-0.5431983,-0.7071074,-0.7678501,-0.7579138,-0.62380445,-0.67966294,-0.9333187,-0.835051,-0.98078775,-1.1271986,-1.019467,-1.145454,-1.1842597,-1.0838134,-1.1205747,-1.1984538,-1.2892109,-1.2575649,-1.2490555,-1.4739776,-1.1409218,-1.1213923,-1.1906263,-1.3530854,-0.9912067,-0.8188932,-0.98684573,-0.9435495,-0.83414316,-0.7873713,-0.5575326,-0.70934,-0.7743247,-0.67196244,-0.7300752,-0.5903597,-0.44144464,-0.40475067,-0.29217798,-0.251158,-0.03949696,-0.17881158,-0.09065433,-0.3388292,-0.13466828,-0.07142896,0.061412707,-0.018489195,-0.20986809,0.122402415,-0.036680553,-0.030132705,0.08983108,-0.09295628,0.0022877953,-0.039700944,0.24565011,0.19109039,0
-0.12412023,0.11847726,0.062294237,0.13845722,-0.26210037,-0.057743747,-0.053128667,-0.011782207,-0.018204486,0.26162964,-0.09883289,-0.10257623,0.25629008,0.1536357,0.09003366,0.2671247,0.2196257,0.2740532,0.29419947,-0.051776234,0.6667552,0.42706352,0.37448534,0.31190225,0.61333567,0.54182076,0.80079085,0.6042529,0.7922132,0.65978384,0.7467053,0.7456649,0.6017478,0.8384546,0.68614584,0.46843952,0.3447227,0.61877537,0.8719257,0.42420042,0.65400004,0.45055178,0.30183423,0.24504933,0.432905,0.5571347,0.3261812,0.046622474,0.44433752,0.10070867,0.32161906,0.17608859,0.06383115,0.25035927,-0.001990618,0.014991574,0.18614525,-0.052280497,0.33715323,0.22523074,-0.006605952,-0.0036077057,0.13405769,0.011082429,0.059939273,-0.15331659,0.15922482,0.26427862,-0.063591525,0.17642458,-0.0028063157,0.28581706,0.31506467,0.3936548,0.5011925,0.5611117,0.43063492,0.8905079,0.82372767,1.034848,1.1128361,1.0028188,1.0179778,1.1559045,1.193147,1.206324,0.85195273,0.69392914,0.910116,0.32899776,0.26427382,0.36346152,0.13408196,-0.093753494,-0.123894066,-0.7241927,-0.57138866,-0.8300695,-0.77080226,-1.0230036,-0.83520734,-0.99600476,-0.9994997,-0.9694486,-1.1737994,-1.0221785,-0.8187322,-0.8520063,-0.5764723,-0.8767088,-0.6771795,-0.5988607,-0.40201864,-0.3619031,-0.3550989,-0.045518756,-0.23094845,-0.40641442,-0.31413326,-0.4032746,-0.20514561,-0.4395205,-0.34148642,-0.3102848,-0.42483398,-0.58316135,-0.4180757,-0.60830253,-0.48425445,-0.60030854,-0.64706016,-1.0229743,-0.6596855,-0.881213,-1.1831474,-0.81607246,-1.0899781,-1.2423317,-1.3580117,-1.1307051,-1.3273903,-1.1102756,-1.2581453,-1.3442757,-1.251235,-1.3824201,-1.4720323,-1.2301592,-1.1437024,-1.3766763,-1.3171498,-1.1807227,-1.1939361,-1.371432,-0.99536324,-1.11369,-0.9816216,-0.5762655,-1.018152,-0.69138724,-0.6382457,-0.70387775,-0.25493482,-0.72897214,-0.38239938,-0.5100747,-0.24187882,-0.3609896,-0.20785606,-0.12299592,-0.23923177,-0.35411027,-0.14630167,-0.17035632,-0.0252621,-0.36818835,0.038737092,0.11699423,-0.19103168,0.008826436,0.118267715,-0.044695605,-0.043088906,0.09479319,-0.05445785,-0.067613624,0
-0.0049200174,0.1127956,-0.18974611,-0.091987625,-0.03296054,0.048474193,-0.22869416,0.05840586,0.41703534,-0.04622114,0.15978606,0.30656675,0.05615805,0.18221381,0.15887529,0.2271977,0.054868776,0.0147395665,0.030393964,0.13311067,0.36963055,0.38832042,0.50916165,0.34796086,0.4724908,0.2659556,0.40996143,0.80481917,0.5495703,0.86206824,0.56088865,0.8552142,0.95280623,0.8617586,0.71370566,0.72076255,0.65993613,0.61571807,0.68688494,0.7226352,0.5956324,0.286677,0.485516,0.45931354,0.46916017,0.24984896,0.16382293,0.48195347,0.034633923,0.21610484,0.25629684,0.14168787,-0.05832835,-0.1674835,0.0026487615,0.15586261,0.09520396,0.046497807,-0.09325547,-0.04754192,0.32438263,-0.03633291,0.047090963,-0.06563719,0.060288977,-0.15344296,0.2863406,0.06841437,0.055578023,0.14064305,0.34045532,0.36318374,0.58903706,0.32302818,0.5918247,0.4894987,0.6458983,0.53789085,0.83183986,0.64977986,0.93050575,1.1596014,0.8908323,0.9155032,1.1788507,1.0859092,0.81663215,0.84352636,0.9206845,0.5709993,0.43323418,0.40799546,0.12715021,-0.1968302,0.050387166,-0.4957665,-0.53956676,-0.5721919,-0.7534579,-0.7951227,-1.0490804,-0.91453296,-0.897465,-0.97537977,-0.7177591,-0.924114,-0.74325866,-0.6387798,-0.54327136,-0.8765639,-0.5786194,-0.41277653,-0.57780683,-0.4692595,-0.42857108,-0.42203772,-0.26075485,-0.43540114,-0.09354804,-0.13213095,-0.5004253,-0.29246962,-0.42381716,-0.32000092,-0.2698818,-0.5189426,-0.5126104,-0.3161819,-0.56831896,-0.41166633,-0.95715034,-0.69035536,-0.79583013,-1.06594,-1.0865659,-0.8956459,-0.766761,-0.9575811,-1.2312818,-1.3468205,-1.2364297,-1.02383,-1.1235167,-1.3021947,-1.3989874,-1.2847028,-1.464365,-1.2876366,-1.2308468,-1.473285,-1.3246441,-1.3078021,-1.0793679,-1.2264591,-0.6723503,-1.1031926,-0.79654545,-0.90187615,-0.570615,-0.6473234,-0.6998641,-0.54205674,-0.59390706,-0.3829224,-0.4449213,-0.6139919,-0.51886725,-0.35735506,-0.37561038,-0.04038879,-0.105831735,-0.25766304,-0.38567784,-0.331676,-0.062928036,-0.028863508,-0.35482845,-0.057760116,0.040579725,-0.08565856,-0.14760865,0.31483847,-0.11608967,0.13564678,0.14378773,-0.38614357,0
0.04773089,0.12758403,-0.05113447,0.05522524,-0.13018143,0.080138676,-0.07667344,0.11454808,0.3435643,0.09868086,0.036794174,0.035001703,-0.09234032,0.051673036,0.023179831,0.3141808,0.45124188,0.06093322,-0.017603332,0.25464863,0.320062,0.16418289,0.31083423,0.36381924,0.5433543,0.49255934,0.35313562,0.3304197,0.5225272,0.53582746,0.4226515,0.46193397,0.6391903,0.42677286,0.6300912,0.50528985,0.54583436,0.52278024,0.6084291,0.497062,0.41957268,0.3762693,0.30064502,0.38605297,0.37005347,0.26608285,0.22111632,0.16680664,-0.03794483,0.080900334,0.26750106,0.40932178,0.06500544,0.03563308,0.0101054795,0.05517632,0.11599667,0.21574616,0.05084375,0.11186548,0.017751891,0.10075514,0.08145478,0.0658639,0.23340121,-0.020978337,-0.1482841,-0.04712369,0.34490055,0.13543624,0.04560734,0.41577584,0.34706455,0.43549204,0.50339574,0.42194197,0.6065186,0.62824214,0.60168123,0.6679186,0.6800133,0.6999038,0.7528444,0.6845195,0.79030925,1.0408235,0.94005877,0.6755321,0.60394174,0.67828566,0.37028375,0.47613668,0.16298652,-0.08271639,-0.11451895,-0.40472656,-0.6074008,-0.672643,-0.59585285,-0.8003459,-0.8627617,-0.9765869,-0.87383676,-0.91532326,-0.71040773,-0.6994176,-0.68612206,-0.65232307,-0.5066098,-0.49877146,-0.61322093,-0.47342458,-0.32840332,-0.39711663,-0.20614995,-0.20758608,-0.30967364,-0.21605374,-0.07815133,-0.11660247,-0.12571569,-0.079622686,-0.3553939,-0.36494052,-0.5517011,-0.2700289,-0.49234974,-0.42941773,-0.509128,-0.39332536,-0.40742669,-0.81180143,-0.5587481,-0.7790012,-0.58921087,-0.92974466,-0.7327091,-1.1223203,-0.9832303,-1.1114138,-1.0845202,-1.0901179,-1.0138093,-0.84353244,-1.131751,-1.2411777,-1.1863632,-1.0264337,-1.4775618,-1.0481362,-1.0599504,-0.9577998,-0.8550883,-0.9839547,-1.0465481,-0.8454531,-0.8882487,-0.7082085,-0.7389182,-0.46894276,-0.7241236,-0.4868116,-0.68864584,-0.5689004,-0.2702681,-0.43967992,-0.3277886,-0.38101882,-0.28548768,-0.027049826,-0.3520495,-0.29348525,-0.05911781,-0.035972968,-0.15988725,-0.051134698,0.020984767,-0.03583576,-0.14179529,-0.10783425,0.10179638,-0.13471352,0.11243223,-0.25477067,0.026891492,0.04675242,0
0.19631301,0.068266936,0.046189263,-0.16638575,-0.031484213,-0.07852949,0.08336498,0.16686502,0.053090177,0.114249066,0.045675967,0.096710786,-0.009492188,0.1267938,0.24649626,0.11652653,0.1829024,0.11685225,0.42771214,0.43752363,0.30840686,0.28962454,0.7233744,0.32554147,0.52839905,0.55515444,0.72231436,0.52459943,0.87202084,0.75063056,0.5345713,0.9470461,0.5831938,0.73781157,0.62272805,0.6286306,0.59811705,0.5847719,0.6575726,0.55680805,0.5453649,0.43606594,0.3361416,0.40026957,0.1805405,0.2736404,0.22277378,0.2947515,0.3466841,0.17992501,0.13113263,0.032791514,0.25549263,0.16991986,0.14818431,-0.11614378,-0.009089436,0.13203852,0.08814649,-0.1579756,-0.10214633,-0.096519165,-0.09104641,-0.07453274,0.20653565,0.010364169,0.036679927,0.031700704,0.41852808,0.4104485,0.1170499,0.3116681,0.22929803,0.2936809,0.40687835,0.7927471,0.6856681,0.57789534,0.7742522,0.6676746,0.82780963,1.059615,0.9963331,1.0117278,0.96191823,1.0721164,0.8654513,0.61757094,0.713068,0.3506356,0.6025353,0.39197427,0.1304972,-0.31835777,-0.37174192,-0.44886252,-0.46713933,-1.1225402,-0.9325305,-1.0836486,-1.0938905,-0.7977701,-1.1506785,-0.82095563,-1.023142,-0.77365947,-1.0771648,-0.70868534,-0.38291886,-0.48929206,-0.5671356,-0.29514,-0.29367533,-0.36390617,-0.47514287,-0.5912104,-0.38775077,-0.44706398,-0.18227507,-0.11789933,-0.11502009,0.017931642,-0.62054455,-0.46029198,-0.41256547,-0.4676137,-0.46358258,-0.7310443,-0.64516103,-0.6385971,-0.6031976,-0.63917655,-0.5816809,-0.7776651,-1.0065405,-0.66869324,-1.0272825,-0.86705256,-1.0817887,-1.2244452,-1.1587081,-1.382875,-1.4001042,-1.3364261,-1.4166025,-1.3174299,-1.3147104,-1.4734739,-1.1946535,-1.2329775,-0.89015615,-0.9352623,-1.077012,-1.1982716,-1.1121705,-1.0134225,-0.9387313,-0.9081435,-0.5543255,-0.62850726,-0.86440337,-0.5967756,-0.2650773,-0.39004907,-0.47062197,-0.50213635,-0.5242713,-0.12831162,-0.43755856,-0.35165894,-0.19333443,-0.014836259,-0.20131408,-0.2538252,0.058673155,-0.14298731,-0.07342581,-0.055505995,-0.027494652,0.03089955,-0.11444122,-0.3156975,0.09478058,0.1904746,-0.021293176,0.07385997,0
-0.2832804,-0.017890763,0.14014827,0.005046459,-0.057392225,-0.262263,0.09009439,-0.340087,0.055561356,-0.24660552,0.14580268,-0.021438003,0.081422925,0.09806606,0.1801062,0.15437631,0.16116221,0.32453454,0.12828268,0.238284,0.30737832,0.2962969,0.43313602,0.7646239,0.57355416,0.7428,0.90878487,0.6204909,0.6287256,0.5887873,0.4628554,0.6284207,0.93645906,0.67013603,0.7676457,0.9374912,0.574862,0.8235696,0.6837136,0.5147283,0.7051282,0.6106379,0.4524949,0.4041986,0.33881846,0.3806185,0.43838271,0.14981003,0.13209088,-0.09294838,0.10221003,0.21248654,0.111730136,0.2196157,-0.1067792,0.12535259,0.31672332,0.07341154,-0.1725204,-0.17179964,0.031217417,0.075840555,-0.02570782,0.14656717,-0.07317952,-0.30382475,0.17621824,0.10938744,0.22648661,0.202881,-0.019357512,0.29151076,0.33436716,0.4368213,0.5515609,0.3119751,0.73083025,0.7624092,0.81270415,0.831596,0.85625654,1.1005692,1.1482878,0.9871557,1.1323982,1.0667894,0.8628661,0.98427886,0.81694984,0.47350222,0.4996708,0.3099129,0.23570788,-0.3278176,-0.3640491,-0.34898758,-0.87633514,-0.68902445,-0.79984194,-0.89452547,-1.078461,-0.9728367,-0.9795041,-0.9285015,-0.7077756,-0.9059024,-0.82283485,-0.87495583,-0.42066884,-0.649096,-0.43834776,-0.56678325,-0.6294018,-0.7895076,-0.3121699,-0.30222255,-0.4938158,-0.19348183,-0.093094215,0.04473543,-0.37608987,-0.2307129,-0.43778238,-0.54105663,-0.3178295,-0.4500675,-0.4229277,-0.45470303,-0.55302197,-0.48700118,-0.6591142,-0.8164398,-0.8253654,-0.91793895,-0.90532464,-1.0900035,-1.0792809,-1.1336372,-1.3016894,-1.4322307,-1.4717562,-1.3967774,-1.1330388,-1.081817,-1.0428015,-1.2771425,-1.2022116,-1.3665235,-1.0068411,-1.403064,-1.3223577,-1.2548215,-1.1129392,-1.094891,-0.88562304,-1.0900756,-1.2351844,-0.8404548,-0.8152661,-0.80133826,-0.7879096,-0.6899445,-0.64660305,-0.53796506,-0.38027537,-0.5125503,-0.37478286,-0.25115058,-0.11039328,-0.16256641,-0.28281307,-0.39047077,-0.24278522,-0.09212579,-0.0069468347,-0.22605152,-0.09526765,-0.055091918,-0.1703083,-0.10344802,-0.055945292,-0.06696829,0.20426187,0.011042795,0.035576597,-0.02670797,0
-0.11783523,-0.0064866263,-0.12061324,0.021302402,0.1484599,-0.10017399,-0.14766285,-0.109529905,0.055737566,0.04341387,0.009427946,-0.03797071,0.10242049,0.22651866,0.028194584,0.20332311,0.2314159,-0.013451963,0.5451957,0.38925487,0.42873788,0.54508024,0.31092894,0.59103024,0.5545419,0.59759676,0.5498705,0.65115565,0.6086452,0.6179858,0.65995187,0.5881143,0.5536459,0.33961463,0.8598381,1.0690523,0.746684,0.7750923,0.62248194,0.659189,0.4021355,0.4383971,0.34861895,0.29820365,0.4369379,0.44556156,0.30438274,0.29688752,0.16613153,0.19641416,0.1161274,0.28145295,0.16072752,0.13624604,-0.043461982,-0.094209515,-0.026832303,0.3403931,-0.040967774,-0.19083028,0.0105342595,0.09519167,0.2625078,0.042906385,0.027913583,-0.069500156,-0.04717651,0.074854895,0.11677109,0.19081394,0.3063757,0.16731185,0.5023635,0.09395669,0.29018188,0.5189782,0.6753584,0.4041657,0.5304886,0.9068733,1.0626082,1.1353601,0.88316387,0.98510563,0.6912293,0.9001083,1.1222776,0.9498155,0.5093718,0.7518255,0.6612303,0.32743064,0.14891168,-0.095439464,-0.34581873,-0.40029752,-0.88194823,-0.90569264,-0.8940606,-0.8693109,-1.0779049,-0.91229975,-1.0968903,-1.1105727,-1.2163339,-0.9928622,-1.0562108,-0.7223474,-0.9614369,-0.7047402,-0.33475104,-0.39462334,-0.33818787,-0.29881185,-0.55311763,-0.33990762,-0.18711984,0.3611592,-0.028265165,-0.16548002,-0.32292703,-0.27641636,-0.46782705,-0.49209484,-0.19945548,-0.58638877,-0.3667478,-0.37489295,-0.6233032,-0.6590249,-0.58875847,-0.60785836,-0.79811805,-0.7334463,-0.7581799,-1.2089063,-1.2101548,-1.006676,-1.0314711,-1.0879942,-1.2874465,-1.2931468,-1.2605977,-1.3935572,-1.1503756,-1.3579197,-1.4580134,-1.4479063,-1.4251052,-1.4161433,-1.2750183,-1.2471633,-1.1419101,-1.4724944,-1.0983394,-1.0086501,-1.083852,-0.6729379,-0.78384614,-0.8854619,-0.6354631,-0.5345945,-0.50604504,-0.2853799,-0.2415196,-0.7292656,-0.63519436,-0.17762224,-0.23129958,-0.2704351,-0.12869954,-0.1575878,-0.19697466,0.074493565,0.046537116,0.1258992,-0.063583754,-0.1148857,-0.32362854,-0.030321823,-0.0037308987,-0.24818684,0.06299572,0.13318218,0.1828053,-0.11697132,0
-0.06157704,0.03703719,0.10444753,0.21234472,-0.31609857,0.20855509,-0.0323546,0.13322796,-0.012829765,0.30851334,0.12070584,0.17879839,0.1101875,0.0592383,0.009884824,0.20704566,0.21475244,0.18299349,0.46093288,0.1832348,0.3040894,0.52672267,0.26429594,0.42664054,0.82257605,0.70982796,0.6731187,0.68544465,0.62098145,0.68497753,0.8868616,0.7970397,0.9448349,0.61077034,0.73451036,0.43781236,0.6172588,0.43806216,0.6730827,0.7399746,0.52056605,0.50878483,0.6555549,0.41587812,0.40303746,0.27608043,0.3826531,0.35078445,0.0296029,0.03528924,0.12906124,0.14616302,0.20020124,0.09117291,0.091976285,0.12439538,0.07381477,0.04721965,-0.0985146,-0.1474674,-0.28756133,0.27907562,-0.0049746158,0.16489041,0.026732195,-0.025273312,-0.022833599,-0.11996754,-0.15849824,0.1523776,0.27603236,0.2870967,0.32136372,0.3288553,0.49426076,0.5761699,0.78396493,0.6304662,0.7701406,0.9519991,0.89875466,0.9611418,0.8552829,0.90650696,0.9818718,1.1111336,1.2685513,0.9120625,0.7746804,0.7592332,0.26128292,0.10604548,-0.06872505,-0.10107232,-0.42068607,-0.3629007,-0.5085036,-0.8942696,-1.0641704,-1.0406809,-1.1287284,-0.95718235,-1.134753,-1.0387481,-0.90950185,-0.8921449,-0.7373378,-0.65883553,-0.66405725,-0.65289974,-0.66861314,-0.47280526,-0.40368846,-0.37019578,-0.4992435,-0.33280334,0.04403992,-0.19954412,-0.13933729,-0.042496707,-0.46181494,-0.15868293,-0.14567594,-0.36901534,-0.14276908,-0.02320038,-0.12911864,-0.44318977,-0.5867795,-0.54658675,-0.658577,-0.6236314,-0.702662,-0.69394064,-0.833256,-1.0728848,-1.1042534,-0.8887462,-1.0501289,-0.9795237,-1.2722449,-1.13484,-1.23021,-1.1081352,-1.3478189,-1.2017848,-1.4155415,-1.2716147,-1.4729297,-1.1835657,-1.3457711,-1.142952,-1.3382615,-1.2241552,-0.9758499,-0.87237775,-0.866885,-0.6217839,-1.0218816,-0.7040194,-0.77071947,-0.85244524,-0.4006693,-0.6316568,-0.5828131,-0.42690787,-0.18868373,-0.24328515,-0.43722582,-0.14406566,-0.43731368,-0.08413809,-0.42998046,-0.27788463,-0.110945776,-0.0240994,-0.17035583,0.16424562,0.21605325,0.06940573,-0.19735205,-0.007005382,-0.008653087,-0.15340082,0.17760594,-0.027390305,0
